Time,X,Y,Theta,Velocity,Control_V,Control_Omega
0,5,5,0,0,5,1.5707963267949
0.1,5,5,0,0.2,1.04223642424771,1.5707963267949
0.2,5.02,5,0.008,0.4,0,1.5707963267949
0.3,5.05999872000683,5.00031999658668,0.024,0.2,5,1.5707963267949
0.4,5.0799929602833,5.000799950508,0.0302831853071796,0.4,0,1.5707963267949
0.5,5.11997462025871,5.00201109278318,0.0462831853071796,0.2,5,1.5707963267949
0.6,5.13995320274996,5.00293642604222,0.0525663706143592,0.4,2.98946919596438,1.5707963267949
0.7,5.17989795100807,5.00503811264976,0.0685663706143592,0.6,2.08415241660697,1.5707963267949
0.8,5.2397569658407,5.00914887210116,0.0925663706143592,0.8,0,1.5707963267949
0.9,5.31941446918458,5.01654361084021,0.124566370614359,0.6,5,1.5707963267949
1,5.3789495673789,5.02399827937694,0.143415926535898,0.8,1.34674468722854,1.5707963267949
1.1,5.45812825145271,5.03543226329946,0.175415926535898,1,0,1.5707963267949
1.2,5.55659365520633,5.05288403294146,0.215415926535898,0.8,5,1.5707963267949
1.3,5.63474466103406,5.06998433376085,0.240548667764616,1,0,1.5707963267949
1.4,5.73186540192265,5.09380788700656,0.280548667764616,0.8,5,1.5707963267949
1.5,5.80873769522074,5.11595851957297,0.305681408993335,1,0,1.5707963267949
1.6,5.90410190608765,5.14605282610647,0.345681408993335,0.8,5,1.5707963267949
1.7,5.97936948879867,5.17315985458323,0.370814150222053,1,0,1.5707963267949
1.8,6.07257275153488,5.20939729123822,0.410814150222053,0.8,5,1.5707963267949
1.9,6.14591643081705,5.24134576083152,0.435946891450771,1,0,1.5707963267949
2,6.23656349140718,5.28357265281245,0.475946891450771,0.8,5,1.5707963267949
2.1,6.30767223325924,5.32022707726868,0.50107963267949,1,0,1.5707963267949
2.2,6.39537867796464,5.36826434985089,0.54107963267949,0.8,5,1.5707963267949
2.3,6.46395092625088,5.40946928602329,0.566212373908208,1,0,0.361329853741407
2.4,6.54834481182164,5.4631132239685,0.606212373908208,0.8,5,1.5707963267949
2.5,6.61408976710344,5.50869393101648,0.631345115136926,1,0,0.830152338861861
2.6,6.69481319810578,5.56771704248318,0.671345115136926,0.8,5,1.5707963267949
2.7,6.7574520508565,5.61748022290881,0.696477856365645,1,0,0.954148989062434
2.8,6.8341626974266,5.68163220419386,0.736477856365645,0.8,5,1.45007151644506
2.9,6.89342981039982,5.73536682357298,0.759679000628766,1,0.202672096590113,-0.494595484882516
3,6.96593552207423,5.80423569734472,0.719679000628766,0.8,5,1.42849106652282
3.1,7.02609691027175,5.85696716205173,0.742534857693131,1,0,-0.922459750966966
3.2,7.09977260668625,5.92458292765295,0.702534857693131,0.8,5,1.5707963267949
3.3,7.16082914521633,5.97627527817723,0.727667598921849,1,0,0.134820823359321
3.4,7.23550192336448,6.04278825588562,0.767667598921849,0.8,5,0.733824611556119
3.5,7.29306451392206,6.09834496716608,0.779408792706747,1,0,-1.5707963267949
3.6,7.36419743368891,6.16863086707099,0.739408792706747,0.8,5,1.5707963267949
3.7,7.42330679957534,6.22253896353621,0.764541533935465,1,0,0.43803236581904
3.8,7.49547677820771,6.29175958318241,0.804541533935465,0.8,5,1.5707963267949
3.9,7.55095210929215,6.34940060712432,0.829674275164184,1,0,-1.5707963267949
4,7.61846371797622,6.42317175794149,0.789674275164184,0.8,5,1.5707963267949
4.1,7.67478985061728,6.47998167592859,0.814807016392902,1,1.11074137562245,0.632092435007874
4.2,7.74339073259679,6.55274099829785,0.854807016392902,1.11074137562245,0.666693370792538,0.316249020256761
4.3,7.81629581085663,6.63654024411261,0.8992366714178,0.910741375622453,5,0.105716229385639
4.4,7.87296284260751,6.70783783204693,0.901162274301326,1.11074137562245,0,-0.765774110786698
4.5,7.94190646070075,6.79492538316309,0.856732619276428,0.910741375622453,5,0.204410368797384
4.6,8.00155183700082,6.86375072456239,0.860455918885828,1.11074137562245,0,-0.458974420709984
4.7,8.07398238080858,6.94796046484763,0.81602626386093,0.910741375622453,1.56490954446599,1.5707963267949
4.8,8.13637920267056,7.0143015166499,0.852455918885828,1.11074137562245,0.126940216063063,-1.5707963267949
4.9,8.20948109944969,7.09792912406809,0.80802626386093,0.910741375622453,5,1.5707963267949
5,8.27240664737734,7.16376888371764,0.836638048010688,1.11074137562245,0,-0.134438405368802
5.1,8.34682215464979,7.24622976118436,0.792208392985789,0.910741375622453,5,1.5707963267949
5.2,8.41078123198501,7.3110659776003,0.820820177135547,1.11074137562245,0,-1.5707963267949
5.3,8.4864917310041,7.39233949341866,0.776390522110649,0.910741375622453,5,1.5707963267949
5.4,8.55146833519709,7.45615594459118,0.805002306260406,1.11074137562245,1.89456159814444,1.5707963267949
5.5,8.62845488320942,7.53622176414198,0.849431961285305,1.31074137562245,0,-1.5707963267949
5.6,8.7150175276237,7.63464604026171,0.797002306260406,1.11074137562245,3.10411759868598,0.95651908268834
5.7,8.79264213180378,7.71409341190535,0.831229273762028,1.31074137562245,0,-0.46277219292583
5.8,8.88098192328234,7.81092579687655,0.77879961873713,1.11074137562245,1.78482739872611,1.46590880971149
5.9,8.96003974365431,7.88894710853709,0.823229273762028,1.31074137562245,0,-1.44953759537646
6,9.04915135909139,7.98506968409497,0.77079961873713,1.11074137562245,5,1.5707963267949
6.1,9.12883081346208,8.06245604327011,0.805694588194067,1.31074137562245,0,-1.13155275328115
6.2,9.21961412265861,8.1570013779462,0.753264933169169,1.11074137562245,1.86264799671452,1.5707963267949
6.3,9.30063820395442,8.23297875803638,0.797694588194067,1.31074137562245,0,-1.5707963267949
6.4,9.39217496271012,8.32679480855114,0.745264933169169,1.11074137562245,3.99900084178582,1.5707963267949
6.5,9.47380426380649,8.40212157164178,0.788894543211154,1.31074137562245,0,-0.783552859895078
6.6,9.56616305305455,8.49512847238747,0.736464888186256,1.11074137562245,5,1.5707963267949
6.7,9.64845206380048,8.56973398656474,0.771359857643193,1.31074137562245,5,0.906373617590836
6.8,9.7424274180457,8.6611071901431,0.795120285690171,1.51074137562245,0,0.033111168137902
6.9,9.84820936198795,8.76896624343012,0.845142697391292,1.31074137562245,2.77233325780345,-0.277854293328007
7,9.93519337652237,8.86701832527014,0.832005924687858,1.51074137562245,1.11421162940926,1.15326509555564
7.1,10.0369258197753,8.97870496292191,0.892435579712756,1.31074137562245,5,-1.38712299755797
7.2,10.1191771403209,9.08075960419898,0.856072389593222,1.51074137562245,0,1.5707963267949
7.3,10.2181924804651,9.19486200319353,0.91650204461812,1.31074137562245,0.847559153246651,-1.5707963267949
7.4,10.2979641250378,9.29886639858072,0.864072389593222,1.11074137562245,3.21994941736608,1.1405891246223
7.5,10.3700896537964,9.38333753055187,0.903417713667887,1.31074137562245,0,-0.0457641550096268
7.6,10.451215259126,9.48628929448815,0.850988058642989,1.11074137562245,5,1.5707963267949
7.7,10.524439830748,9.56980950848433,0.885883028099926,1.31074137562245,1.59112119363906,0.230471661274199
7.8,10.6073580990503,9.67132300669729,0.904868932099459,1.51074137562245,0,-0.695557427306278
7.9,10.7006899865028,9.7901192769449,0.844439277074561,1.31074137562245,5,1.48852303401794
8,10.7877429513381,9.88811014820883,0.883460651659649,1.51074137562245,0,-1.5707963267949
8.1,10.8835964815371,10.0048812738717,0.823030996634751,1.31074137562245,5,1.5707963267949
8.2,10.9727271541306,10.1009861787451,0.864209151398868,1.51074137562245,0,-0.368977898020981
8.3,11.0708108027464,10.2158904559256,0.80377949637397,1.31074137562245,5,0.597121344920176
8.4,11.161775008352,10.3102617589591,0.819432929435054,1.51074137562245,0,-0.478735119447004
8.5,11.2649036093362,10.4206605211768,0.759003274410155,1.31074137562245,1.43931068935439,1.4813798756273
8.6,11.3600008212159,10.5108655644415,0.811432929435054,1.43931068935439,4.89283447139882,1.18147103996283
8.7,11.4590915866598,10.6152550888616,0.84618791464703,1.63931068935439,0,0.0784373963387506
8.8,11.5677520315569,10.7379999587221,0.911760342221206,1.43931068935439,1.61771735546041,-1.5707963267949
8.9,11.6558889416348,10.8517894032537,0.85418791464703,1.61771735546041,0,1.13649493650612
9,11.7621456436725,10.97377140067,0.918896608865446,1.41771735546041,4.87560052862338,-1.5707963267949
9.1,11.8481582221039,11.0864703862525,0.873221307919096,1.61771735546041,0,1.5707963267949
9.2,11.9520740867625,11.2104525926122,0.937930002137512,1.41771735546041,5,-1.5707963267949
9.3,12.0359261711712,11.3247681774642,0.893391097849701,1.61771735546041,0,1.5707963267949
9.4,12.137320373493,11.4508209844822,0.958099792068117,1.41771735546041,0.123505075445664,-1.5707963267949
9.5,12.2188498371099,11.5668044814206,0.901391097849701,1.21771735546041,0,1.5707963267949
9.6,12.2944115958234,11.6622967648681,0.950099792068117,1.01771735546041,1.31771109012248,-0.382029619602334
9.7,12.3536022320236,11.7450853796788,0.920594221607061,1.21771735546041,1.03466812562059,0.413820340666138
9.8,12.4273164216528,11.8420109894277,0.969297394962232,1.03466812562059,0.734674606837226,-0.293834632038022
9.9,12.4858661139854,11.9273181686655,0.927915628783868,0.834668125620587,1.13466188073715,-0.235750486239559
10,12.5359047649188,11.9941226760886,0.910573597663912,1.03466812562059,0.734674606837226,-0.293834632038022
10.1,12.5993602151757,12.0758465228803,0.869191831485549,0.834668125620587,1.13466171617475,0.177883948725959
10.2,12.6532333721467,12.1395991052379,0.882277146689593,1.03466812562059,0.734674606837226,-0.293834632038022
10.3,12.7189756062921,12.2194949120823,0.840895380511229,0.834668125620587,1.13466185537957,0.296763653772651
10.4,12.7746309279703,12.2816977574205,0.862725599044827,1.03466812562059,0.750428351518234,-0.30013704253836
10.5,12.8419225842583,12.3602930136117,0.821343602934979,0.834668125620587,1.13466174631754,0.157143642390716
10.6,12.8987833672528,12.4213958789825,0.832903240851136,1.03466812562059,0.734674635749819,0.293834423784333
10.7,12.9683886505308,12.4979496890872,0.874284976071851,0.834668125620587,0.534674606837226,-0.21384421742359
10.8,13.0219364090492,12.5619758271632,0.84090225135493,0.634668125620587,0.934661831502071,0.29363267390312
10.9,13.0642554893602,12.6092741541782,0.860840938534181,0.834668125620587,0.534674606837226,-0.21384421742359
11,13.1186591526575,12.6725746298407,0.82745821381726,0.634668125620587,0.934661831502071,0.29363267390312
11.1,13.1616102699345,12.7192997603536,0.847396900996511,0.834668125620587,0.534674606837226,-0.21384421742359
11.2,13.2168600051239,12.7818631327113,0.81401417627959,0.634668125620587,0.934661947897683,0.00269180061671925
11.3,13.2604353964066,12.8280066216491,0.814196958948318,0.834668125620587,0.534674635749819,0.213844069010633
11.4,13.3177314040468,12.888701566313,0.847579658691663,0.634668125620587,0.934661821005707,-0.0940362983234914
11.5,13.3597337130559,12.9362814185059,0.841194264546319,0.834668125620587,0.534674606837226,-0.21384421742359
11.6,13.4153704408111,12.9985008955526,0.807811539829398,0.634668125620587,0.934661872469053,0.20942148454153
11.7,13.4592312033162,13.0443732162837,0.822031991628458,0.834668125620587,0.534674635749819,0.213844069010633
11.8,13.5160499103198,13.1055152094939,0.855414691371803,0.634668125620587,0.934661872083633,-0.227253483851032
11.9,13.5576781442393,13.1534226873812,0.839983384399266,0.834668125620587,0.905808873130917,0.162596863270861
12,13.6133901715175,13.2155747494212,0.854966061553773,0.905808873130917,1.20580236300168,0.48226279401735
12.1,13.6728333460494,13.2839224351757,0.891194048113226,1.10580887313092,0.805815354347555,-0.322287521484681
12.2,13.7423316331424,13.3699347641181,0.846966992990196,0.905808873130917,1.20580227514056,0.14286032013908
12.3,13.80231961794,13.4378047783095,0.857698781133922,1.10580887313092,0.805815372129605,0.322287303858134
12.4,13.8746593897059,13.5214414333109,0.901925805416407,0.905808873130917,1.20580259993401,-0.378814058398511
12.5,13.9308286234098,13.5925041825649,0.873468980444983,1.10580887313092,0.805815356471735,0.322287320623359
12.6,14.0018404878921,13.6772712029307,0.917696007887516,0.905808873130917,1.20580261984579,-0.291742031970144
12.7,14.056882109624,13.7492108792127,0.895780105825735,1.10580887313092,0.805815312847981,-0.32228757259564
12.8,14.125985209755,13.8355410256925,0.851553041411123,0.905808873130917,1.19651726489456,0.0516729614568093
12.9,14.1856613096445,13.9036854330082,0.855464880242187,1.10580887313092,0.805815308258216,0.322287372270152
13,14.2581877367542,13.9871602795768,0.899691917418326,0.905808873130917,0.982983823460878,-0.103188954172192
13.1,14.3145155763994,14.0580973758476,0.890183167826783,0.982983823460878,0.682990246271193,-0.273163445660295
13.2,14.3763717681476,14.134493602942,0.850868514402247,0.782983823460878,1.06803318223304,0.0629361989313308
13.3,14.4279962718363,14.1933625021751,0.855482418398218,0.982983823460878,1.24501493818956,-0.334755868920467
13.4,14.4924656998362,14.2675667124682,0.829052245244158,1.18298382346088,0.88299017719318,0.353153739661806
13.5,14.5723851099507,14.3547870951356,0.876365926868867,0.982983823460878,1.23777777519596,-0.0567849061860864
13.6,14.6352909486103,14.4303213749984,0.871856341601121,1.18298382346088,0.882990129918606,-0.353154045273835
13.7,14.7114049063825,14.5208817012895,0.824542616498981,0.982983823460878,1.22124612736227,0.405877132101158
13.8,14.778138976766,14.593056044528,0.857211760435581,1.18298382346088,0.88299009671957,-0.353154091134452
13.9,14.8555709434864,14.6824920428481,0.809898027410355,0.982983823460878,1.20959285100095,0.380004801406537
14,14.92335478379,14.7536813887192,0.840779374990326,1.18298382346088,1.38856190872727,0.436229589145539
14.1,15.0022458771865,14.8418329777485,0.877943907880845,1.38298382346088,1.08299004083465,0.433144364654225
14.2,15.090581826175,14.9482435161169,0.933256664873362,1.18298382346088,0.882990065797012,-0.353154133732707
14.3,15.1609954140546,15.0433036755299,0.885942924484105,0.982983823460878,0.682990125426237,0.273163371413104
14.4,15.2231749873495,15.1194369313169,0.925257574178863,0.782983823460878,1.01904290589887,-0.32014177064862
14.5,15.2702815545127,15.1819797806933,0.900659411905128,0.982983823460878,0.682989962333841,0.0854904007610842
14.6,15.3313340209992,15.2590198242276,0.912963499174899,0.782983823460878,1.00938680435339,-0.267265146448908
14.7,15.3792059153752,15.3209788300852,0.892231676117389,0.982983823460878,0.682990045435113,-0.273163642329183
14.8,15.4409054791421,15.3975016097187,0.852916982826922,0.782983823460878,0.993421947225224,0.0759384102511493
14.9,15.4924092835199,15.4564761365301,0.85890220863878,0.982983823460878,0.682989853040251,0.247299074788029
15,15.5566245721968,15.5309003844067,0.8944943904247,0.782983823460878,0.99085822235214,0.296908628723669
15.1,15.6056325646241,15.5919647222502,0.91795633968165,0.982983823460878,0.682990008679413,-0.273163677929262
15.2,15.6653434087632,15.6700492089556,0.878641639151737,0.782983823460878,0.981017286572692,0.30819567004995
15.3,15.7153132404407,15.730328994955,0.903239801428046,0.981017286572692,0.681023441601474,-0.272377185225835
15.4,15.7760449683904,15.8073718816207,0.864003747152704,0.781017286572692,0.969628114264095,0.0307586002978501
15.5,15.826764077666,15.8667642378086,0.866481294801128,0.969628114264095,0.669634275705282,0.267821840240617
15.6,15.8895486614252,15.9406552578442,0.90526180460071,0.769628114264095,0.956977333153399,-0.300643295905964
15.7,15.9370716327534,16.0011931925529,0.881083224306462,0.956977333153399,0.656983480302641,0.262762140941263
15.8,15.9979656208564,16.0750171613882,0.919357765513466,0.756977333153399,0.940000803380455,-0.0564475448477913
15.9,16.0438635027764,16.1352129358607,0.914812076636577,0.940000803380455,1.10083187774358,0.392514653089133
16,16.1011978653127,16.209703109549,0.948328919371788,1.10083187774358,0.800837925229612,-0.320297485562165
16.1,16.1653809387925,16.2991393511363,0.904300824377804,0.900831877743576,1.05553656077304,0.123550162197865
16.2,16.2210735434481,16.3699441144383,0.914845028031604,1.05553656077304,0.755542576922644,-0.302181524016447
16.3,16.2854521319796,16.453592017281,0.87262852609883,0.855536560773041,1.00232837619575,0.246122654982473
16.4,16.3404473279453,16.5191279348292,0.893636305063567,1.00232837619575,0.702334371373295,-0.280900771013305
16.5,16.4032514400143,16.5972449319841,0.853547876366653,0.80232837619575,0.944128787341747,0.197020715890875
16.6,16.4559895711555,16.6577097792611,0.870290858169244,0.944128787341747,1.07015144729488,-0.428011386480584
16.7,16.5168485101385,16.729889978878,0.832530046621696,1.07015144729488,0.77015734374781,-0.308026921727492
16.8,16.5888704089812,16.8090422832574,0.789728993204694,0.870151447294879,0.986181812055026,0.394427189808498
16.9,16.6501323600751,16.8708371759303,0.824531033342621,0.986181812055026,1.08999317791724,-0.370114398088799
17,16.7170843783445,16.9432455519233,0.791044577173022,1.08999317791724,0.789999098926372,0.315962420043128
17.1,16.7937221161963,17.0207536703111,0.834639168963478,0.889993177917236,0.995012196212608,0.397958895792632
17.2,16.8534802739666,17.0867069958322,0.870234783137361,0.995012196212608,0.695018122975161,0.277974472672504
17.3,16.9176234444452,17.1627737190892,0.910030578585244,0.795012196212608,0.909774161941958,0.285813982322417
17.4,16.9664150607331,17.2255417212981,0.935006623333469,0.909774161941958,0.609780104517044,0.243883254321557
17.5,17.0204386420216,17.2987424243147,0.971393294802162,0.709774161941958,0.834287617807862,0.262099185075793
17.6,17.0604805282187,17.3573465279201,0.993691507728017,0.834287617807862,0.705980881668143,0.282359710127654
17.7,17.1059992550293,17.4272636488692,1.02705915493267,0.705980881668143,0.833695161293595,0.333439279107273
17.8,17.1425223145481,17.4876801712467,1.05529510581449,0.833695161293595,0.533701156839702,0.213455218226916
17.9,17.1836210679606,17.5602154639502,1.08863896881872,0.633695161293595,0.774699909060978,0.24337915427331
18,17.2130049844064,17.6163606420938,1.10854708944954,0.774699909060978,0.474705946288521,0.189859890078683
18.1,17.2475536887978,17.6857002881548,1.13953141579478,0.574699909060978,0.728500389703733,0.228865147213375
18.2,17.2715773075801,17.7379081955574,1.15758614591569,0.728500389703733,0.869815757219251,0.347885946871762
18.3,17.3008303421921,17.8046269196457,1.18672278154974,0.869815757219251,0.569821808761126,0.22790171481858
18.4,17.3334223680915,17.8852715373386,1.22151128904429,0.669815757219251,0.831627890122631,0.261263606978952
18.5,17.3563452117803,17.9482086068876,1.24255417166294,0.831627890122631,0.531634003703779,0.21262834463982
18.6,17.3831551928586,18.0269313760899,1.27581533637422,0.631627890122631,0.814765478605916,0.325867563520641
18.7,17.4015179838357,18.0873660170116,1.3010774574398,0.814765478605916,0.946464067659966,0.378542788742327
18.8,17.4232282639377,18.1658968491043,1.33366438883858,0.946464067659966,1.12485247340953,0.449888557602598
18.9,17.4454621998294,18.2578946447762,1.37151853987508,1.12485247340953,1.30920304233238,0.523619187904077
19,17.4677299438625,18.368153787005,1.41650730934732,1.30920304233238,1.00920931459783,0.403635492959254
19.1,17.4878494621878,18.4975188945219,1.46886917400036,1.10920304233238,1.39860417907695,0.16001052010786
19.2,17.4991356869029,18.6078635138872,1.48155926590514,1.30920304233238,1.2278266007546,0.491074009597397
19.3,17.5108031305307,18.7382628881945,1.53392134919769,1.2278266007546,0.927833110883831,0.371088498551915
19.4,17.5153297123604,18.8609620800098,1.58302849189516,1.0278266007546,1.32782042304351,-7.34917079713963e-05
19.5,17.5140724892456,18.9637370507091,1.58302280311895,1.2278266007546,0.927833110883831,0.371088498551915
19.6,17.5125713273605,19.0865105337101,1.63212994581642,1.0278266007546,1.32782032755769,-0.417147058012395
19.7,17.5062712465338,19.1890999298179,1.59983982088361,1.2278266007546,0.927833110883831,0.371088498551915
19.8,17.5027057103906,19.3118308084394,1.64894696358108,1.0278266007546,1.3278204180838,0.0613078513753027
19.9,17.4946813540346,19.4142997545512,1.6536926234324,1.2278266007546,0.927833081971238,-0.371088764599327
