Time,X,Y,Theta,Velocity,Control_V,Control_Omega
0,5,5,0,0,0.3,-1.46603040646396e-07
0.1,5,5,0,0.2,0.5,0.2
0.2,5.02,5,0.008,0.4,0.7,0.28
0.3,5.05999872000683,5.00031999658668,0.024,0.6,0.9,0.36
0.4,5.11998144083625,5.00175985835066,0.048,0.8,1.1,0.44
0.5,5.19988929852961,5.00559838396052,0.08,1,1.3,0.52
0.6,5.29956946915987,5.01358985335744,0.12,1.2,1.5,0.6
0.7,5.41870650546234,5.02795531823211,0.168,1.4,1.7,0.68
0.8,5.55673546789219,5.05136483617968,0.224,1.6,1.9,0.76
0.9,5.71273814405169,5.08690586924112,0.288,1.8,2.1,0.84
1,5.88532463940871,5.13803219925202,0.36,2,2.3,0.92
1.1,6.07250400414429,5.20848704590704,0.44,2.2,2.5,1
1.2,6.27154937005269,5.30219372822155,0.528,2.4,2.7,1.08
1.3,6.47886530867098,5.42310734033705,0.624,2.6,2.9,1.16
1.4,6.68986773958275,5.575021704863,0.728,2.8,3.1,0.900240909958515
1.5,6.89888960168842,5.76132753183005,0.809312082189801,3,3.3,0.313994766143664
1.6,7.10588855763245,5.97847133726341,0.837857060930134,3.2,3.5,0.165241953470811
1.7,7.31998680303985,6.21629888258454,0.852964896676037,3.4,3.7,0.088491566939606
1.8,7.5436227480857,6.47239840246587,0.861096554178595,3.6,3.9,0.0480016960546059
1.9,7.77820092991828,6.74547911692247,0.865527479968251,3.8,4.1,-0.0525332392121147
2,8.02453158384402,7.03482529183501,0.860658545602251,4,4.3,-0.0183256921005847
2.1,8.28530688497915,7.33813411517828,0.85895383005801,4.2,4.5,-0.00331895160696268
2.2,8.55966346107796,7.65614114206815,0.85864406124136,4.4,4.7,-0.0811554238150784
2.3,8.84718782179597,7.98920231061487,0.851046532203353,4.6,4.9,-0.0244333257454791
2.4,9.15041823271412,8.33510882673505,0.848752791419083,4.8,5,-0.00431439332711496
2.5,9.46765965784943,8.69532803524304,0.84833860965968,5,5,0.0221669073711288
2.6,9.79827486008459,9.07041947482945,0.850555300396793,5,5,0.00591977915632302
2.7,10.1280577890064,9.44624286392564,0.851147278312425,5,5,0.00137997276317881
2.8,10.4576181810105,9.82226141136994,0.851285275588743,5,5,0.0691119311474531
2.9,10.7871266803414,10.1983254336703,0.858196468703489,5,5,0.0178006419538669
3,11.1140282798931,10.5766577534772,0.859976532898875,5,5,0.00301050515123919
3.1,11.4402559060694,10.9555713794125,0.860277583413999,5,5,0.124000787143089
3.2,11.7663694453218,11.3345831991705,0.872677662128308,5,5,0.032426196416202
3.3,12.0877582570099,11.7176096104292,0.875920281769929,5,5,0.00514810167554433
3.4,12.407903372277,12.1016761478554,0.876435091937483,5,5,0.0765978804580057
3.5,12.7278507237704,12.4859074483404,0.884094879983283,5,5,0.0178223888741025
3.6,13.0448455877355,12.8725781819365,0.885877118870694,5,5,-0.0007522187466396
3.7,13.3611508090001,13.2598132617017,0.88580189699603,5,5,0.0853674652164581
3.8,13.6774851579185,13.6470245472996,0.894338643517676,5,5,0.0207893482848554
3.9,13.9905024958626,14.0369221571235,0.896417578346161,5,5,0.0964363449115647
4,14.3027085862445,14.4274696665618,0.906061212837318,5,5,0.0254065139026377
4.1,14.6111339201494,14.8210097704974,0.908601864227581,5,5,0.00335605900177379
4.2,14.9185584114894,15.2153322047112,0.908937470127759,5,5,0.100214301514749
4.3,15.2258505485837,15.6097577901897,0.918958900279234,5,5,0.0299676346712373
4.4,15.5291746129824,16.007243025081,0.921955663746358,5,5,0.00813909066347697
4.5,15.8313061479198,16.4056354642618,0.922769572812705,5,5,0.105720287411845
4.6,16.1331133276015,16.8042736790538,0.93334160155389,5,5,0.0363793417146829
4.7,16.4306893051207,17.2060802713386,0.936979535725358,5,5,0.01502760428292
4.8,16.7268015707896,17.6089667641879,0.93848229615365,5,5,0.250373574702242
4.9,17.0223080604544,18.0122977877479,0.963519653623874,5,5,0.0863295582084834
5,17.307624644997,18.4229003286374,0.972152609444723,5,5,0.0349108364775467
5.1,17.5893859280135,18.8359506638182,0.975643693092477,5,5,-0.00974569725210301
5.2,17.8697035036838,19.2499821321516,0.974669123367267,5,5,0.000537349549588458
5.3,18.1504244487037,19.6637402148849,0.974722858322226,5,5,-0.130168800648156
5.4,18.4311231600465,20.0775133815481,0.96170597825741,5,5,-0.0424165396902911
5.5,18.717183974632,20.4875977757387,0.957464324288381,5,5,-0.110115115457336
5.6,19.0049816467538,20.8964651135407,0.946452812742647,5,5,-0.0370748666393607
5.7,19.2972640272567,21.3021386399724,0.942745326078711,5,5,-0.0680199901548607
5.8,19.591048424728,21.7067257477779,0.935943327063225,5,5,-0.0538046543154663
5.9,19.8875780058239,22.1093051902922,0.930562861631679,5,5,-0.0168490031282582
6,20.1862693490751,22.5102833461396,0.928877961318853,5,5,-0.00626668525821848
6.1,20.4856358762511,22.9107576679214,0.928251292793031,5,5,-0.0165739179475299
6.2,20.785253309281,23.3110443074993,0.926593900998278,5,5,-0.00492297487974014
6.3,21.0855337622825,23.7108338140465,0.926101603510304,5,5,-0.00141574412822831
6.4,21.3860109942583,24.110475444841,0.925960029097481,5,5,0.00152646043365238
6.5,21.6865448022519,24.510074531743,0.926112675140846,5,5,0.00212824373459915
6.6,21.9870176095249,24.9097194892859,0.926325499514306,5,5,0.00263096893539279
6.7,22.2874053558059,25.3094283857146,0.926588596407846,5,5,0.0230672283115331
6.8,22.5876879295228,25.7092162993913,0.928895319238999,5,5,0.00907908585455669
6.9,22.8870475052524,26.109695817493,0.929803227824455,5,5,-0.147904807977468
7,23.1860433588585,26.510446961629,0.915012747026708,5,5,-0.0426390065127603
7.1,23.4909335951417,26.9067321415426,0.910748846375432,5,5,-0.0109282003051353
7.2,23.7975107753642,27.3017137013234,0.909656026344918,5,5,-0.0613981136139803
7.3,24.1045194161951,27.696359991633,0.90351621498352,5,5,-0.0156468106455246
7.4,24.4139453089016,28.0891138801214,0.901951533918968,5,5,-0.0359975925022006
7.5,24.7239853571574,28.481383135197,0.898351774668748,5,5,-0.00855150275533548
7.6,25.0354354684544,28.8725337815893,0.897496624393214,5,5,-0.000107915800745364
7.7,25.3472199584148,29.2634179483448,0.89748583281314,5,5,-0.198740009694339
7.8,25.6590086666148,29.6542987504303,0.877611831843706,5,5,-0.0578054679123061
7.9,25.9785036563899,30.038906279619,0.871831285052475,5,5,-0.113240582760065
8,26.300216537699,30.4216605375962,0.860507226776469,5,5,-0.0313525379526435
8.1,26.6262430308046,30.8007472371695,0.857371972981204,5,5,-0.175682650148619
8.2,26.9534564525875,31.1788098994426,0.839803707966342,5,5,-0.0476458863841344
8.3,27.2872609428345,31.5510659434379,0.835039119327929,5,5,-0.0118706658354395
8.4,27.6228352843969,31.921727327028,0.833852052744385,5,5,-0.102387758529159
8.5,27.9588493891649,32.29199010047,0.823613276891469,5,5,-0.0269182695204802
8.6,28.2986368527892,32.6587931532977,0.820921449939421,5,4.85,0.156341404738678
8.7,28.6394104545271,33.0246802292633,0.837039120531038,4.85,5,-0.321601662617999
8.8,28.9641978317905,33.3848720664422,0.805843759257092,5,5,-0.0880184365137207
8.9,29.310449222212,33.7455796691222,0.79704191560572,5,5,-0.140748087686775
9,29.6598620511764,34.1032256881901,0.782967106837042,5,5,-0.0365501530911457
9.1,30.0142739044566,34.4559185265842,0.779312091527927,5,5,-0.00636968635692934
9.2,30.3699724852747,34.8073136312797,0.778675122892235,5,5,-0.20895552954019
9.3,30.7258948215796,35.1584820958652,0.757779569938216,5,4.85,0.121074791527906
9.4,31.0890767838488,35.502137246099,0.770261507209134,4.85,5,-0.152201751820793
9.5,31.4371751551796,35.8398538786134,0.755497937282517,5,5,-0.19157625877595
9.6,31.8011402662471,36.1826794872333,0.736340311404922,5,5,-0.0524867853199567
9.7,32.1716059121139,36.5184699058466,0.731091632872926,5,5,-0.0101320275637674
9.8,32.5438289029519,36.8523112530337,0.730078430116549,5,4.85,0.142787618188847
9.9,32.9163899516468,37.1857752915676,0.744798803125709,4.85,5,-0.379075083613726
10,33.2729737339028,37.5145198827505,0.708028520015177,5,5,-0.109213002887055
10.1,33.6527964732109,37.8396885877398,0.697107219726472,5,5,-0.351007991648278
10.2,34.0361477555796,38.1606898249746,0.662006420561644,5,5,-0.106948423909837
10.3,34.4305279915395,38.4680401616985,0.65131157817066,5,4.85,0.213039798560001
10.4,34.8281726739251,38.7711551672169,0.673274444001588,4.85,4.7,0.234407846255652
10.5,35.2073379544791,39.0735765454666,0.697463338774778,4.7,5,-0.702997352024913
10.6,35.5675806812822,39.3754460169032,0.631381587684436,4.9,5,-0.314101248048159
10.7,35.9631149445867,39.6646736894247,0.600599665375717,5,4.85,0.180911540382806
10.8,36.3756133795838,39.947242337942,0.619250339641985,4.85,4.7,0.235974754523858
10.9,36.7705555759556,40.2287483974239,0.643600926013064,4.7,5,-0.681256932925562
11,37.1465274256266,40.5107859272936,0.579562774318062,4.9,5,-0.22561381022091
11.1,37.5565114938733,40.7791384264135,0.557452620916412,5,5,-0.115500418138402
11.2,37.9808142404647,41.043651524832,0.545902579102572,5,4.85,0.12103724541412
11.3,38.4081437550622,41.303246374461,0.55838064564011,4.85,5,-0.135366108248993
11.4,38.8194791316061,41.5602059199219,0.545250133139958,5,5,-0.244607129549137
11.5,39.246977926849,41.8195219049013,0.520789420185044,5,4.85,0.0418275511973033
11.6,39.6806912579002,42.0683044333643,0.525101538865179,4.85,5,-0.152814048637709
11.7,40.1003486845131,42.3114353534232,0.510278576147321,5,4.85,0.0832688985425832
11.8,40.5366529241362,42.5556455302932,0.518862998677484,4.85,4.9652364458325,-0.30319487381665
11.9,40.9578189565483,42.7961536863758,0.489247185733772,4.9652364458325,4.8152364458325,0.213512119131882
12,41.3960938743724,43.0295006941486,0.511263511774378,4.8152364458325,4.80547538736459,-0.214973698470826
12.1,41.8160436428022,43.2651003806691,0.489722475678471,4.80547538736459,2.5,0.0367500278071646
