Time,X,Y,Theta,Velocity,Control_V,Control_Omega
0,5,5,0,0,0.282801234234581,-0.113120493693832
0.1,5,5,0,0.2,0.477802119631104,0.191120847852442
0.2,5.02,5,0.008,0.4,0.698801326392356,0.279520530556942
0.3,5.05999872000683,5.00031999658668,0.024,0.6,0.910840932666688,0.364336373066675
0.4,5.11998144083625,5.00175985835066,0.048,0.8,1.06170825094481,0.424683300377924
0.5,5.19988929852961,5.00559838396052,0.08,1,1.30777599277259,0.523110397109036
0.6,5.29956946915987,5.01358985335744,0.12,1.2,1.58880069223198,0.635520276892792
0.7,5.41870650546234,5.02795531823211,0.168,1.4,1.89043099928537,0.756172399714148
0.8,5.55673546789219,5.05136483617968,0.224,1.6,2.19765434306283,0.879061737225132
0.9,5.71273814405169,5.08690586924112,0.288,1.8,2.33894174987808,0.935576699951232
1,5.88532463940871,5.13803219925202,0.36,2,2.57269228476677,1.02907691390671
1.1,6.07250400414429,5.20848704590704,0.44,2.2,2.49479089669591,0.997916358678362
1.2,6.27154937005269,5.30219372822155,0.528,2.4,2.66927349408946,1.06401246656078
1.3,6.47886530867098,5.42310734033705,0.62366760114317,2.6,3.00325276561509,1.19040821839211
1.4,6.6899182240862,5.57495155950503,0.726724573345295,2.8,3.28701361188775,0.386456264024856
1.5,6.89917753553581,5.76099064295697,0.759644349988633,3,2.98564393481058,0.790764486733676
1.6,7.11670182948013,5.96758972704019,0.839101027073992,2.98564393481058,3.25865320121467,0.330383854596625
1.7,7.31618224588333,6.18973441080804,0.869371463684677,3.18564393481058,3.46729094729826,0.0245662399305236
1.8,7.52175402425954,6.43309323380239,0.871628536841366,3.38564393481058,3.753576311979,-1.00409873940983
1.9,7.73964761990271,6.69222298800072,0.781061021371259,3.58564393481058,3.81709333555487,-0.250051774071821
2,7.99428819926812,6.94466426753496,0.757572032544663,3.78564393481058,3.86939217768434,0.764120901571137
2.1,8.2693177112903,7.20479840125933,0.832330276828547,3.86939217768434,4.15990666707104,0.158283130801022
2.2,8.52978752694387,7.49094073189331,0.84705319148019,4.06939217768434,4.36425847919507,-0.654552730568258
2.3,8.79926029905786,7.7958734327425,0.786020331617415,4.26939217768434,4.65693297284232,-0.693845633000089
2.4,9.10096402930904,8.09795281770818,0.722409815096646,4.46939217768434,4.51980762948217,0.267833319199401
2.5,9.43626433460499,8.39346655621775,0.748894396740006,4.51980762948217,4.907965278945,0.633491704663557
2.6,9.76731404826971,8.70118834153325,0.807233453298439,4.71980762948217,4.99994313739522,-0.298625398861277
2.7,10.093688541035,9.04213633033118,0.779044043995739,4.91980762948217,5,0.962632940031057
2.8,10.4437749267188,9.38780176636724,0.873763421650852,5,4.9997616890012,-0.197815899217459
2.9,10.7647476744768,9.77117690275027,0.853980888850076,4.9997616890012,5,-0.0527633373068937
3,11.0932255979849,10.1481098188452,0.848704806601059,5,4.99999804259741,-0.0270084689386012
3.1,11.4237034207174,10.5233223035548,0.846003958649869,4.99999804259741,4.96290484110777,0.418611604757095
3.2,11.755193298969,10.8976407039529,0.888177993240604,4.96290484110777,4.99991367678281,-0.654284631770747
3.3,12.0682666424075,11.2827242354718,0.823233824673141,4.99991367678281,5,-0.122052542718369
3.4,12.4081873970866,11.6493919982915,0.811028781120667,5,4.99984744822901,0.634728654515527
3.5,12.7525638647031,12.0118900652546,0.874503583210914,4.99984744822901,4.99993737300429,0.996196749954701
3.6,13.0732429806953,12.3954909641353,0.974121466528566,4.99993737300429,4.99987663307208,-1.03966389185766
3.7,13.3541869620699,12.8090900655234,0.870153814329351,4.99987663307208,4.99990985751341,0.393447904821895
3.8,13.6765334959281,13.1912946907819,0.909498343365091,4.99990985751341,4.99999999999197,-0.138995998613349
3.9,13.9835988259189,13.5858854521414,0.895598994092632,4.99999999999197,4.99994945385827,-0.0878848461146457
4,14.2961245077045,13.9761772637691,0.886810420635486,4.99994945385827,4.99980109034095,0.0702978048621553
4.1,14.6120649901323,14.3637034654312,0.893840409722592,4.99980109034095,4.99999351204005,-0.884217800811041
4.2,14.9252640892222,14.7534295663778,0.805422032499735,4.99999351204005,4.98621384433657,0.210993804095529
4.3,15.2716671194054,15.1139906456478,0.82657972217156,4.98621384433657,4.93966455984278,0.37737717896674
4.4,15.6094311201024,15.4807859084957,0.864673064168866,4.93966455984278,4.74534899450874,-0.0531405609851684
4.5,15.9299604754652,15.8566366660956,0.859141404725222,4.74534899450874,4.63614381231681,-0.593052262495566
4.6,16.2398734800515,16.2159934531264,0.798439233449864,4.63614381231681,4.51362918983902,0.319080336240815
4.7,16.563395410811,16.5480655157912,0.831213355210353,4.51362918983902,4.37352961968553,0.439212100936889
4.8,16.8676049415825,16.8815097330472,0.876541516483028,4.37352961968553,4.22129619696874,-0.308736521184896
4.9,17.1474290155359,17.2176289097968,0.844554461865766,4.22129619696874,4.0486686298506,-0.387816392811052
5,17.4277502961294,17.5332448084328,0.804119246891014,4.0486686298506,3.85804279690529,1.11628787652322
5.1,17.7086249980538,17.8248379814706,0.92126361115746,3.85804279690529,3.67132950952207,0.179007149659704
5.2,17.9419649596799,18.1320795875982,0.940074705137119,3.67132950952207,3.47939747316361,-0.627843508248335
5.3,18.1584734284738,18.4285769511874,0.873827016651614,3.47939747316361,3.27391328302868,-0.480112122618526
5.4,18.3818148154644,18.6953740512836,0.822802424310281,3.27939747316361,3.06472360279147,0.0867656889389711
5.5,18.6048694458839,18.9357718668276,0.832086758493129,3.07939747316361,2.86138787727705,-0.657389384411005
5.6,18.8122158731086,19.1634434440927,0.761339159912882,2.87939747316361,2.65508478972302,0.162961094818283
5.7,19.0206591375272,19.3620906278209,0.779012032977425,2.67939747316361,2.45372951237456,0.28655535750884
5.8,19.2113272073306,19.5503388558323,0.810303000337868,2.47939747316361,2.25364055503684,0.488412751266534
5.9,19.3822268540518,19.7299702257259,0.864036917161677,2.27939747316361,2.05429035376555,-0.289891396917133
6,19.5302447288572,19.9033116147383,0.831871176013471,2.07939747316361,1.85637844899,-0.122259914546732
6.1,19.6702908552739,20.0570191974714,0.818176395322821,1.87939747316361,1.65949283382461,-0.0702867899405886
6.2,19.7987577072558,20.1941965154332,0.810216323864924,1.67939747316361,1.46369535971869,0.175263434576281
6.3,19.9145255842511,20.3158581666825,0.830325492566665,1.47939747316361,1.26711835561008,0.139482696229845
6.4,20.0143309945559,20.4250600389646,0.846610502363806,1.27939747316361,1.0714922259103,-0.219881274459746
6.5,20.0990943796614,20.5208919099097,0.820355944455017,1.07939747316361,0.882050992067315,0.290830010350368
6.6,20.1727050686973,20.5998378123389,0.855945857182917,0.882050992067315,0.688268728633562,0.187004913480187
6.7,20.2305239081487,20.6664495330085,0.879911477382477,0.688268728633562,0.499818018823203,-0.058692877866461
6.8,20.2743817246811,20.7194931976364,0.871829241267,0.499818018823203,0.323905751430316,-0.054343573148401
6.9,20.3065413818725,20.7577546268927,0.863443500369574,0.323905751430316,0.161490095754176,-0.0163246526049499
7,20.3275895541314,20.7823742085841,0.860169213581798,0.161490095754176,0.0121763822258545,-0.00117015382246536
7.1,20.3381237019966,20.7946143980851,0.859980245328961,0.0121763822258545,0,0
7.2,20.3389181530247,20.7955371604624,0.859980245328961,0,0,0
7.3,20.3389181530247,20.7955371604624,0.859980245328961,0,0,-0
7.4,20.3389181530247,20.7955371604624,0.859980245328961,0,0,0
7.5,20.3389181530247,20.7955371604624,0.859980245328961,0,0,0
7.6,20.3389181530247,20.7955371604624,0.859980245328961,0,0,-0
7.7,20.3389181530247,20.7955371604624,0.859980245328961,0,0,-0
7.8,20.3389181530247,20.7955371604624,0.859980245328961,0,0,-0
7.9,20.3389181530247,20.7955371604624,0.859980245328961,0,0,0
8,20.3389181530247,20.7955371604624,0.859980245328961,0,0,-0
8.1,20.3389181530247,20.7955371604624,0.859980245328961,0,0,-0
8.2,20.3389181530247,20.7955371604624,0.859980245328961,0,0,-0
8.3,20.3389181530247,20.7955371604624,0.859980245328961,0,0,0
8.4,20.3389181530247,20.7955371604624,0.859980245328961,0,0,-0
8.5,20.3389181530247,20.7955371604624,0.859980245328961,0,0,-0
8.6,20.3389181530247,20.7955371604624,0.859980245328961,0,0,-0
8.7,20.3389181530247,20.7955371604624,0.859980245328961,0,0,-0
8.8,20.3389181530247,20.7955371604624,0.859980245328961,0,0,0
8.9,20.3389181530247,20.7955371604624,0.859980245328961,0,0,-0
9,20.3389181530247,20.7955371604624,0.859980245328961,0,0,-0
9.1,20.3389181530247,20.7955371604624,0.859980245328961,0,0,0
9.2,20.3389181530247,20.7955371604624,0.859980245328961,0,0,-0
9.3,20.3389181530247,20.7955371604624,0.859980245328961,0,0,-0
9.4,20.3389181530247,20.7955371604624,0.859980245328961,0,0,-0
9.5,20.3389181530247,20.7955371604624,0.859980245328961,0,0,0
9.6,20.3389181530247,20.7955371604624,0.859980245328961,0,0,0
9.7,20.3389181530247,20.7955371604624,0.859980245328961,0,0,-0
9.8,20.3389181530247,20.7955371604624,0.859980245328961,0,0,-0
9.9,20.3389181530247,20.7955371604624,0.859980245328961,0,0,-0
10,20.3389181530247,20.7955371604624,0.859980245328961,0,0,-0
10.1,20.3389181530247,20.7955371604624,0.859980245328961,0,0,-0
10.2,20.3389181530247,20.7955371604624,0.859980245328961,0,0,0
10.3,20.3389181530247,20.7955371604624,0.859980245328961,0,0,-0
10.4,20.3389181530247,20.7955371604624,0.859980245328961,0,0,0
10.5,20.3389181530247,20.7955371604624,0.859980245328961,0,0,0
10.6,20.3389181530247,20.7955371604624,0.859980245328961,0,0,-0
10.7,20.3389181530247,20.7955371604624,0.859980245328961,0,0,0
10.8,20.3389181530247,20.7955371604624,0.859980245328961,0,0,-0
10.9,20.3389181530247,20.7955371604624,0.859980245328961,0,0,0
11,20.3389181530247,20.7955371604624,0.859980245328961,0,0,0
11.1,20.3389181530247,20.7955371604624,0.859980245328961,0,0,-0
11.2,20.3389181530247,20.7955371604624,0.859980245328961,0,0,-0
11.3,20.3389181530247,20.7955371604624,0.859980245328961,0,0,-0
11.4,20.3389181530247,20.7955371604624,0.859980245328961,0,0,-0
11.5,20.3389181530247,20.7955371604624,0.859980245328961,0,0,-0
11.6,20.3389181530247,20.7955371604624,0.859980245328961,0,0,-0
11.7,20.3389181530247,20.7955371604624,0.859980245328961,0,0,0
11.8,20.3389181530247,20.7955371604624,0.859980245328961,0,0,0
11.9,20.3389181530247,20.7955371604624,0.859980245328961,0,0,-0
12,20.3389181530247,20.7955371604624,0.859980245328961,0,0,0
12.1,20.3389181530247,20.7955371604624,0.859980245328961,0,0,-0
12.2,20.3389181530247,20.7955371604624,0.859980245328961,0,0,-0
12.3,20.3389181530247,20.7955371604624,0.859980245328961,0,0,-0
12.4,20.3389181530247,20.7955371604624,0.859980245328961,0,0,-0
12.5,20.3389181530247,20.7955371604624,0.859980245328961,0,0,-0
12.6,20.3389181530247,20.7955371604624,0.859980245328961,0,0,-0
12.7,20.3389181530247,20.7955371604624,0.859980245328961,0,0,0
12.8,20.3389181530247,20.7955371604624,0.859980245328961,0,0,-0
12.9,20.3389181530247,20.7955371604624,0.859980245328961,0,0,-0
13,20.3389181530247,20.7955371604624,0.859980245328961,0,0,-0
13.1,20.3389181530247,20.7955371604624,0.859980245328961,0,0,0
13.2,20.3389181530247,20.7955371604624,0.859980245328961,0,0,0
13.3,20.3389181530247,20.7955371604624,0.859980245328961,0,0,0
13.4,20.3389181530247,20.7955371604624,0.859980245328961,0,0,0
13.5,20.3389181530247,20.7955371604624,0.859980245328961,0,0,0
13.6,20.3389181530247,20.7955371604624,0.859980245328961,0,0,-0
13.7,20.3389181530247,20.7955371604624,0.859980245328961,0,0,-0
13.8,20.3389181530247,20.7955371604624,0.859980245328961,0,0,0
13.9,20.3389181530247,20.7955371604624,0.859980245328961,0,0,-0
14,20.3389181530247,20.7955371604624,0.859980245328961,0,0,-0
14.1,20.3389181530247,20.7955371604624,0.859980245328961,0,0,-0
14.2,20.3389181530247,20.7955371604624,0.859980245328961,0,0,0
14.3,20.3389181530247,20.7955371604624,0.859980245328961,0,0,-0
14.4,20.3389181530247,20.7955371604624,0.859980245328961,0,0,-0
14.5,20.3389181530247,20.7955371604624,0.859980245328961,0,0,-0
14.6,20.3389181530247,20.7955371604624,0.859980245328961,0,0,-0
14.7,20.3389181530247,20.7955371604624,0.859980245328961,0,0,-0
14.8,20.3389181530247,20.7955371604624,0.859980245328961,0,0,-0
14.9,20.3389181530247,20.7955371604624,0.859980245328961,0,0,-0
15,20.3389181530247,20.7955371604624,0.859980245328961,0,0,0
15.1,20.3389181530247,20.7955371604624,0.859980245328961,0,0,0
15.2,20.3389181530247,20.7955371604624,0.859980245328961,0,0,0
15.3,20.3389181530247,20.7955371604624,0.859980245328961,0,0,-0
15.4,20.3389181530247,20.7955371604624,0.859980245328961,0,0,-0
15.5,20.3389181530247,20.7955371604624,0.859980245328961,0,0,-0
15.6,20.3389181530247,20.7955371604624,0.859980245328961,0,0,-0
15.7,20.3389181530247,20.7955371604624,0.859980245328961,0,0,-0
15.8,20.3389181530247,20.7955371604624,0.859980245328961,0,0,-0
15.9,20.3389181530247,20.7955371604624,0.859980245328961,0,0,0
16,20.3389181530247,20.7955371604624,0.859980245328961,0,0,-0
16.1,20.3389181530247,20.7955371604624,0.859980245328961,0,0,0
16.2,20.3389181530247,20.7955371604624,0.859980245328961,0,0,-0
16.3,20.3389181530247,20.7955371604624,0.859980245328961,0,0,-0
16.4,20.3389181530247,20.7955371604624,0.859980245328961,0,0,-0
16.5,20.3389181530247,20.7955371604624,0.859980245328961,0,0,-0
16.6,20.3389181530247,20.7955371604624,0.859980245328961,0,0,-0
16.7,20.3389181530247,20.7955371604624,0.859980245328961,0,0,-0
16.8,20.3389181530247,20.7955371604624,0.859980245328961,0,0,0
16.9,20.3389181530247,20.7955371604624,0.859980245328961,0,0,-0
17,20.3389181530247,20.7955371604624,0.859980245328961,0,0,-0
17.1,20.3389181530247,20.7955371604624,0.859980245328961,0,0,0
17.2,20.3389181530247,20.7955371604624,0.859980245328961,0,0,0
17.3,20.3389181530247,20.7955371604624,0.859980245328961,0,0,-0
17.4,20.3389181530247,20.7955371604624,0.859980245328961,0,0,-0
17.5,20.3389181530247,20.7955371604624,0.859980245328961,0,0,0
17.6,20.3389181530247,20.7955371604624,0.859980245328961,0,0,-0
17.7,20.3389181530247,20.7955371604624,0.859980245328961,0,0,0
17.8,20.3389181530247,20.7955371604624,0.859980245328961,0,0,-0
17.9,20.3389181530247,20.7955371604624,0.859980245328961,0,0,-0
18,20.3389181530247,20.7955371604624,0.859980245328961,0,0,0
18.1,20.3389181530247,20.7955371604624,0.859980245328961,0,0,-0
18.2,20.3389181530247,20.7955371604624,0.859980245328961,0,0,0
18.3,20.3389181530247,20.7955371604624,0.859980245328961,0,0,0
18.4,20.3389181530247,20.7955371604624,0.859980245328961,0,0,-0
18.5,20.3389181530247,20.7955371604624,0.859980245328961,0,0,-0
18.6,20.3389181530247,20.7955371604624,0.859980245328961,0,0,0
18.7,20.3389181530247,20.7955371604624,0.859980245328961,0,0,0
18.8,20.3389181530247,20.7955371604624,0.859980245328961,0,0,0
18.9,20.3389181530247,20.7955371604624,0.859980245328961,0,0,0
19,20.3389181530247,20.7955371604624,0.859980245328961,0,0,0
19.1,20.3389181530247,20.7955371604624,0.859980245328961,0,0,-0
19.2,20.3389181530247,20.7955371604624,0.859980245328961,0,0,-0
19.3,20.3389181530247,20.7955371604624,0.859980245328961,0,0,-0
19.4,20.3389181530247,20.7955371604624,0.859980245328961,0,0,-0
19.5,20.3389181530247,20.7955371604624,0.859980245328961,0,0,-0
19.6,20.3389181530247,20.7955371604624,0.859980245328961,0,0,-0
19.7,20.3389181530247,20.7955371604624,0.859980245328961,0,0,0
19.8,20.3389181530247,20.7955371604624,0.859980245328961,0,0,0
19.9,20.3389181530247,20.7955371604624,0.859980245328961,0,0,0
20,20.3389181530247,20.7955371604624,0.859980245328961,0,0,-0
20.1,20.3389181530247,20.7955371604624,0.859980245328961,0,0,-0
20.2,20.3389181530247,20.7955371604624,0.859980245328961,0,0,-0
20.3,20.3389181530247,20.7955371604624,0.859980245328961,0,0,-0
20.4,20.3389181530247,20.7955371604624,0.859980245328961,0,0,-0
20.5,20.3389181530247,20.7955371604624,0.859980245328961,0,0,0
20.6,20.3389181530247,20.7955371604624,0.859980245328961,0,0,-0
20.7,20.3389181530247,20.7955371604624,0.859980245328961,0,0,-0
20.8,20.3389181530247,20.7955371604624,0.859980245328961,0,0,-0
20.9,20.3389181530247,20.7955371604624,0.859980245328961,0,0,-0
21,20.3389181530247,20.7955371604624,0.859980245328961,0,0,0
21.1,20.3389181530247,20.7955371604624,0.859980245328961,0,0,0
21.2,20.3389181530247,20.7955371604624,0.859980245328961,0,0,-0
21.3,20.3389181530247,20.7955371604624,0.859980245328961,0,0,0
21.4,20.3389181530247,20.7955371604624,0.859980245328961,0,0,-0
21.5,20.3389181530247,20.7955371604624,0.859980245328961,0,0,0
21.6,20.3389181530247,20.7955371604624,0.859980245328961,0,0,-0
21.7,20.3389181530247,20.7955371604624,0.859980245328961,0,0,0
21.8,20.3389181530247,20.7955371604624,0.859980245328961,0,0,-0
21.9,20.3389181530247,20.7955371604624,0.859980245328961,0,0,-0
22,20.3389181530247,20.7955371604624,0.859980245328961,0,0,-0
22.1,20.3389181530247,20.7955371604624,0.859980245328961,0,0,-0
22.2,20.3389181530247,20.7955371604624,0.859980245328961,0,0,-0
22.3,20.3389181530247,20.7955371604624,0.859980245328961,0,0,-0
22.4,20.3389181530247,20.7955371604624,0.859980245328961,0,0,-0
22.5,20.3389181530247,20.7955371604624,0.859980245328961,0,0,-0
22.6,20.3389181530247,20.7955371604624,0.859980245328961,0,0,0
22.7,20.3389181530247,20.7955371604624,0.859980245328961,0,0,-0
22.8,20.3389181530247,20.7955371604624,0.859980245328961,0,0,-0
22.9,20.3389181530247,20.7955371604624,0.859980245328961,0,0,-0
23,20.3389181530247,20.7955371604624,0.859980245328961,0,0,-0
23.1,20.3389181530247,20.7955371604624,0.859980245328961,0,0,-0
23.2,20.3389181530247,20.7955371604624,0.859980245328961,0,0,-0
23.3,20.3389181530247,20.7955371604624,0.859980245328961,0,0,0
23.4,20.3389181530247,20.7955371604624,0.859980245328961,0,0,0
23.5,20.3389181530247,20.7955371604624,0.859980245328961,0,0,-0
23.6,20.3389181530247,20.7955371604624,0.859980245328961,0,0,0
23.7,20.3389181530247,20.7955371604624,0.859980245328961,0,0,0
23.8,20.3389181530247,20.7955371604624,0.859980245328961,0,0,-0
23.9,20.3389181530247,20.7955371604624,0.859980245328961,0,0,-0
24,20.3389181530247,20.7955371604624,0.859980245328961,0,0,0
24.1,20.3389181530247,20.7955371604624,0.859980245328961,0,0,0
24.2,20.3389181530247,20.7955371604624,0.859980245328961,0,0,0
24.3,20.3389181530247,20.7955371604624,0.859980245328961,0,0,-0
24.4,20.3389181530247,20.7955371604624,0.859980245328961,0,0,0
24.5,20.3389181530247,20.7955371604624,0.859980245328961,0,0,-0
24.6,20.3389181530247,20.7955371604624,0.859980245328961,0,0,0
24.7,20.3389181530247,20.7955371604624,0.859980245328961,0,0,-0
24.8,20.3389181530247,20.7955371604624,0.859980245328961,0,0,-0
24.9,20.3389181530247,20.7955371604624,0.859980245328961,0,0,-0
25,20.3389181530247,20.7955371604624,0.859980245328961,0,0,-0
25.1,20.3389181530247,20.7955371604624,0.859980245328961,0,0,-0
25.2,20.3389181530247,20.7955371604624,0.859980245328961,0,0,-0
25.3,20.3389181530247,20.7955371604624,0.859980245328961,0,0,-0
25.4,20.3389181530247,20.7955371604624,0.859980245328961,0,0,-0
25.5,20.3389181530247,20.7955371604624,0.859980245328961,0,0,-0
25.6,20.3389181530247,20.7955371604624,0.859980245328961,0,0,-0
25.7,20.3389181530247,20.7955371604624,0.859980245328961,0,0,-0
25.8,20.3389181530247,20.7955371604624,0.859980245328961,0,0,-0
25.9,20.3389181530247,20.7955371604624,0.859980245328961,0,0,0
26,20.3389181530247,20.7955371604624,0.859980245328961,0,0,0
26.1,20.3389181530247,20.7955371604624,0.859980245328961,0,0,-0
26.2,20.3389181530247,20.7955371604624,0.859980245328961,0,0,-0
26.3,20.3389181530247,20.7955371604624,0.859980245328961,0,0,-0
26.4,20.3389181530247,20.7955371604624,0.859980245328961,0,0,-0
26.5,20.3389181530247,20.7955371604624,0.859980245328961,0,0,-0
26.6,20.3389181530247,20.7955371604624,0.859980245328961,0,0,-0
26.7,20.3389181530247,20.7955371604624,0.859980245328961,0,0,0
26.8,20.3389181530247,20.7955371604624,0.859980245328961,0,0,-0
26.9,20.3389181530247,20.7955371604624,0.859980245328961,0,0,-0
27,20.3389181530247,20.7955371604624,0.859980245328961,0,0,0
27.1,20.3389181530247,20.7955371604624,0.859980245328961,0,0,0
27.2,20.3389181530247,20.7955371604624,0.859980245328961,0,0,-0
