Time,X,Y,Theta,Velocity,Control_V,Control_Omega
0,5,5,0,0,2.3,0.92
0.1,5,5,0,0.2,2.3,0.92
0.2,5.02,5,0.008,0.4,2.3,0.92
0.3,5.05999872000683,5.00031999658668,0.024,0.6,2.3,0.92
0.4,5.11998144083625,5.00175985835066,0.048,0.8,2.3,0.92
0.5,5.19988929852961,5.00559838396052,0.08,1,2.3,0.92
0.6,5.29956946915987,5.01358985335744,0.12,1.2,2.3,0.92
0.7,5.41870650546234,5.02795531823211,0.168,1.4,2.3,0.92
0.8,5.55673546789219,5.05136483617968,0.224,1.6,2.3,0.92
0.9,5.71273814405169,5.08690586924112,0.288,1.8,2.3,0.92
1,5.88532463940871,5.13803219925202,0.36,2,2.3,0.92
1.1,6.07250400414429,5.20848704590704,0.44,2.2,2.3,0.92
1.2,6.27154937005269,5.30219372822155,0.528,2.3,2.3,0.92
1.3,6.47022714456188,5.41806927316557,0.62,2.3,2.3,0.92
1.4,6.65741918959427,5.55170736008915,0.712,2.3,2.3,0.92
1.5,6.83154222889096,5.70197767381106,0.804,2.3,2.3,0.721999216671778
1.6,6.99112352425846,5.86760922324785,0.876199921667178,2.3,2.3,0.544132764604991
1.7,7.13834086737352,6.04432100521539,0.930613198127677,2.3,2.3,0.464146974289174
1.8,7.27572960053074,6.2287778728063,0.977027895556594,2.3,2.3,0.275494678599345
1.9,7.4044119343377,6.41941065321407,1.00457736341653,2.3,2.3,0.122735112082455
2,7.52779427066428,6.61351577700681,1.01685087462477,2.3,2.3,0.00520199951103038
2.1,7.64878502240651,6.80912057754312,1.01737107457588,2.3,2.3,-0.0394161523783444
2.2,7.76967400417512,7.00478829099362,1.01342945933804,2.3,2.3,-0.0349354322307014
2.3,7.89133329170318,7.19997798784816,1.00993591611497,2.3,2.3,-0.0327579329282702
2.4,8.01367373907124,7.39474147245907,1.00666012282215,2.3,2.3,-0.0755580885253516
2.5,8.13665153380864,7.58910315078461,0.99910431396961,2.3,2.3,-0.133413050617385
2.6,8.26109436386271,7.78253009318959,0.985763008907872,2.3,2.3,-0.204806942826014
2.7,8.38810661055894,7.97427964127035,0.96528231462527,2.3,2.3,-0.244382280257279
2.8,8.51901910931312,8.16338785809324,0.940844086599543,2.3,2.3,-0.262181349447161
2.9,8.65451352750104,8.34924065640394,0.914625951654826,2.3,2.3,-0.148282777584013
3,8.79483353508398,8.53147757766833,0.899797673896425,2.3,2.3,-0.181818872472631
3.1,8.93784027698041,8.71161383657299,0.881615786649162,2.3,2.3,-0.0643822997001276
3.2,9.08409841856786,8.88912033228339,0.875177556679149,2.3,2.3,-0.0149848451485069
3.3,9.2314963486523,9.06568151206769,0.873679072164299,2.3,2.3,-0.0740658371414528
3.4,9.37915868734382,9.24202162018876,0.866272488450153,2.3,2.3,-0.0780150581889447
3.5,9.52812304169342,9.41726322807115,0.858470982631259,2.3,2.3,-0.136316001738684
3.6,9.67844999737595,9.59133736858381,0.844839382457391,2.3,2.3,0.0249407145966867
3.7,9.83113582195354,9.76334620258098,0.847333453917059,2.3,2.3,-0.0311109814666046
3.8,9.98339216976957,9.93573531055977,0.844222355770399,2.3,2.3,-0.0951010239316592
3.9,10.136184099316,10.1076499005907,0.834712253377233,2.3,2.3,-0.0782856625258748
4,10.2906040202168,10.2781036715345,0.826883687124645,2.3,2.3,-0.081262313250661
4.1,10.4463536042262,10.4473433450183,0.818757455799579,2.3,2.3,-0.0757209345604563
4.2,10.6034733113524,10.6153117873894,0.811185362343534,2.3,2.3,-0.0621558403781345
4.3,10.7618603747344,10.7820857006769,0.80496977830572,2.3,2.3,-0.060574397898852
4.4,10.921280969203,10.9478719306819,0.798912338515835,2.3,2.3,-0.107136035932444
4.5,11.0817028728692,11.1126894443876,0.788198734922591,2.3,2.3,-0.0799838538591116
4.6,11.2438813256333,11.2757788353946,0.78020034953668,2.3,2.3,-0.0311406651965276
4.7,11.4073590287024,11.4375658577396,0.777086283017027,2.3,2.3,0.0281993882366106
4.8,11.5713397538522,11.5988430160086,0.779906221840688,2.3,2.3,0.0635214499728957
4.9,11.7348650358934,11.760581948036,0.786258366837978,2.3,2.3,0.0214667704287853
5,11.8973596366051,11.9233563463287,0.788405043880856,2.3,2.3,0.0155246504409231
5.1,12.0595044391157,12.0864791927323,0.789957508924949,2.3,2.29999999999953,-0.037213311720318
5.2,12.2213958038146,12.2498535665977,0.786236177752916,2.29999999999953,2.29999999999887,-0.0630833073176843
5.3,12.3838940163012,12.4126243592438,0.779927847021146,2.29999999999887,2.29999999999974,-0.00554354917724041
5.4,12.5474158006705,12.574366827497,0.779373492103422,2.29999999999974,2.29999999999953,-0.151407547926883
5.5,12.711027222642,12.736018621797,0.764232737310732,2.29999999999953,2.29999999999938,0.00597765680380382
5.6,12.8770673282971,12.8951747819481,0.764830502991113,2.29999999999938,2.29999999999831,0.0510843552093305
5.7,13.0430122662025,13.0544301667348,0.769938938512048,2.29999999999831,2.29999999999938,0.00725885618440509
5.8,13.2081414965273,13.2145311888809,0.770664824130488,2.29999999999938,2.29999999999842,0.0207470918129881
5.9,13.3731544683289,13.3747520337707,0.772739533311788,2.29999999999842,2.29999999999871,0.00267489899791406
6,13.5378346735686,13.5353148875138,0.773007023211579,2.29999999999871,2.29999999999805,0.00656488372535996
6.1,13.7024719239758,13.6959217858037,0.773663511584116,2.29999999999805,2.29999999999478,-0.0455549060296088
6.2,13.8670037023517,13.8566367319175,0.769108020981148,2.29999999999478,2.29999999999235,-0.0871573088615194
6.3,14.0322659064024,14.0166004900381,0.760392290094987,2.29999999999235,2.29999999999206,-0.00801073177742771
6.4,14.1989160169225,14.1751178097962,0.759591216917244,2.29999999999206,2.29999999998676,0.0148568240329506
6.5,14.3656930579308,14.3335015797733,0.761076899320543,2.29999999998676,2.29999999998003,0.00204622354147781
6.6,14.5322346069858,14.4921329525775,0.761281521674691,2.29999999998003,2.29999999996772,0.00495698729402248
6.7,14.698743693029,14.6507984001839,0.761777220404096,2.29999999996772,2.29999999994691,-0.0229635729744815
6.8,14.8651741083567,14.809546366635,0.759480863106627,2.29999999994691,2.29999999991039,0.00425905611720612
6.9,15.0319686265987,14.9679117311626,0.759906768718355,2.29999999991039,2.29999999983592,0.0272097955100158
7,15.1986956810148,15.1263481200435,0.762627748269444,2.29999999983592,2.29999999963424,0.036253774394386
7.1,15.3649910165826,15.2852375827554,0.766253125709201,2.29999999963424,2.29999999884865,0.108239945731997
7.2,15.5307092262854,15.4447288833209,0.777077120286098,2.29999999884865,2.2999999999978,0.024357987774837
7.3,15.6946914290855,15.6060045389911,0.779512919062364,2.2999999999978,2.29999999998107,-0.91989791672855
7.4,15.8582803108486,15.7676791435628,0.68752312738884,2.29999999998107,2.29999999999778,-0.892347715893721
7.5,16.0360289727496,15.9136428828665,0.598288355800116,2.29999999999778,2.29999999993678,-0.436889004101934
7.6,16.2260781734127,16.0431855450563,0.554599455388764,2.29999999993678,2.28811038568927,-0.181904114917419
7.7,16.4216038037761,16.1643041970801,0.536314521807095,2.28811038568927,2.26552585457499,0.0223728254251532
7.8,16.618289243758,16.2812201030558,0.538574107329331,2.26552585457499,2.23388038919928,0.171615347949174
7.9,16.8127712518169,16.3974217489945,0.555978754852115,2.23388038919928,2.19457039724155,0.161339621809374
8,17.0025135415223,16.5153203470771,0.572401714790598,2.19457039724155,2.14855442834877,0.286415797643624
8.1,17.1869896790728,16.6341898005079,0.601656716317094,2.14855442834877,2.09715133387665,0.511599951549879
8.2,17.3641162977975,16.7557999244899,0.654070689676547,2.09715133387665,2.04215916176153,0.549306173880191
8.3,17.5305490973012,16.8833952238594,0.71048050321262,2.04215916176153,1.98485959100983,0.58874285177219
8.4,17.6853546826199,17.0165844545569,0.771054390358788,1.98485959100983,1.9265546904799,0.608033455998059
8.5,17.8277041028913,17.154907693778,0.83369787734394,1.9265546904799,1.86845004390748,0.747292782815888
8.6,17.9571960069075,17.2975540275843,0.910751070207737,1.86845004390748,1.81273312475148,0.725008587792363
8.7,18.0717605078376,17.4451549448999,0.985480345532236,1.81273312475148,1.76064062764135,0.704173962109925
8.8,18.1719072681911,17.5962530594031,1.05798119815735,1.76064062764135,1.71346491922466,0.685305799426444
8.9,18.2582899661717,17.7496694329967,1.12839858571463,1.71346491922466,1.67266682127897,0.66898835894438
9,18.331644701395,17.9045200161872,1.1969291543753,1.67266682127897,1.64004944732772,0.655942797392686
9.1,18.3927335362213,18.060232241814,1.26382797597141,1.64004944732772,1.61805351894115,0.647145319566963
9.2,18.442290926395,18.2165706151456,1.32942224162901,1.61805351894115,1.61031180144647,0.583264091085053
9.3,18.4809684089139,18.3736853001613,1.38802906014729,1.61031180144647,1.62048449834944,0.352285075648229
9.4,18.5102360581614,18.5320344261023,1.42303641846313,1.62048449834944,1.64550953002794,0.205361624191123
9.5,18.534093288171,18.6923170910109,1.44326026539229,1.64550953002794,1.68277504394591,0.182657193318578
9.6,18.5550226232666,18.8555316095642,1.46112148537028,1.68277504394591,1.73573087349917,0.150364810219183
9.7,18.5734414546224,19.0227980590893,1.47569921478604,1.73573087349917,1.80862777489848,-0.0272407358045553
9.8,18.5899228861874,19.1955868870434,1.47308493523062,1.80862777489848,1.89062364815049,0.00353805401270814
9.9,18.6075671320994,19.3755869561199,1.47342339618041,1.89062364815049,1.99168201234403,0.0363842115116043
10,18.6259476107552,19.563753732661,1.47687720307713,1.99168201234403,2.1295654397052,-0.113669263950555
10.1,18.6446258259305,19.7620441677828,1.46624625348781,2.1295654397052,2.29111204412508,-0.228297743445571
10.2,18.6668499089924,19.9738378875951,1.44502620946373,2.29111204412508,2.29999999999999,-0.373682040420814
10.3,18.6955893446764,20.201139424818,1.4078024084428,2.29999999999999,2.29999999999998,-0.441318629128819
10.4,18.7329121728685,20.4280909758058,1.36367054552992,2.29999999999998,2.29999999999998,-0.404723154429619
10.5,18.7802112054811,20.6531749634946,1.32319823008696,2.29999999999998,2.29999999999995,-0.427792173375185
10.6,18.8365786886789,20.8761608528194,1.28041901274944,2.29999999999995,2.29999999999989,-0.420962506511843
10.7,18.9024308543102,21.0965321129275,1.23832276209825,2.29999999999989,2.29999999999944,-0.465578433110799
10.8,18.9774987445827,21.3139368319427,1.19176491878716,2.29999999999944,2.29999999998396,-0.426136760034445
10.9,19.0626035282217,21.5276122301562,1.14915124278343,2.29999999998396,2.2999999974549,-0.44973562459994
11,19.1567337902077,21.737468118274,1.10417768027398,2.2999999974549,2.29531377827596,-0.41007824558093
11.1,19.2602036588383,21.9428798661574,1.06308613223732,2.29531377827596,2.27642426303821,-0.405061951594429
11.2,19.3717966626076,22.1434581673696,1.02224382117755,2.27642426303821,2.24553083340202,-0.225247688840798
11.3,19.4905014107242,22.3377009459434,0.999409162376916,2.24553083340202,2.22327679178638,-0.218214037661515
11.4,19.6119395799258,22.5265841328568,0.977369335772313,2.22327679178638,2.21187292449116,-0.261632394411074
11.5,19.7362664134813,22.7109002617956,0.951071205168474,2.21187292449116,2.20678223728636,-0.238896817752379
11.6,19.8647345191164,22.8909551539133,0.927126413788272,2.20678223728636,2.21324542307762,-0.277005685566484
11.7,19.9971712525982,23.0674753795326,0.899506737264309,2.21324542307762,2.22685711032674,-0.161387124620038
11.8,20.1348342942782,23.2407769663204,0.883466672850093,2.22685711032674,2.27828949555457,-0.1424900186201
11.9,20.2761229046308,23.4129003362698,0.869539342204278,2.27828949555457,2.29999999994174,-0.13161407541115
12,20.4231132611687,23.5869689013251,0.856502169791932,2.29999999994174,2.2999999999986,-0.919894025350494
12.1,20.5737826446785,23.7607467390091,0.764512767259157,2.2999999999986,2.29999999996472,-0.91989797752913
12.2,20.7397781753326,23.9199493891214,0.672522969504889,2.29999999996472,2.2290198125136,-0.891508289725266
12.3,20.9196962374905,24.0632305494592,0.580533250309688,2.2290198125136,2.11764816469546,-0.502660900399957
12.4,21.1060802533706,24.1854855774547,0.527623559047137,2.11764816469546,2.00063964931962,-0.232790232247327
12.5,21.2890463260628,24.2921052460809,0.50298304928591,2.00063964931962,1.89029257796764,-0.0653028045883384
12.6,21.4643320707192,24.388544334549,0.496071559414238,1.89029257796764,1.79392353036659,-0.0374314920717694
12.7,21.6305755867938,24.4785174064446,0.492127329325954,1.79392353036659,1.71450129094323,0.685720520649341
12.8,21.7886793930741,24.5632806223327,0.563875900397098,1.71450129094323,1.82683085892315,0.730647993235884
12.9,21.9335873152347,24.6549149000981,0.632448035661248,1.82683085892315,1.96333482037929,0.785242967745606
13,22.0809363576877,24.7629027214453,0.705512806394186,1.96333482037929,2.07899780785636,0.831503175775989
13.1,22.2304009412112,24.8902101228062,0.784037138266389,2.07899780785636,2.17730610083472,0.87082121315421
13.2,22.3776082304835,25.0370172508206,0.867187384916979,2.17730610083472,2.26199209811911,0.644098188763504
13.3,22.5184742212935,25.2030395119799,0.929185785225163,2.26199209811911,2.29999999998172,0.459681079403085
13.4,22.6538513889875,25.3842551431674,0.974394262150072,2.29999999998172,2.29999999999969,0.347377479123906
13.5,22.7830353328002,25.5745483607558,1.00913201006219,2.29999999999969,2.29999999914368,0.219801701800688
13.6,22.9055323121634,25.7692134322167,1.03111218025044,2.29999999914368,2.29999999826702,0.103070400370689
13.7,23.0237212749443,25.9665237690908,1.04141922029144,2.29999999826702,2.29999999999726,0.12810269110387
13.8,23.1398703102953,26.1650417821459,1.05422948939219,2.29999999999726,2.29999999999195,0.031679846164453
13.9,23.2534668160448,26.3650313665781,1.05739747400864,2.29999999999195,2.29999999996862,0.00367339580040311
14,23.3664291888929,26.5653798188311,1.05776481358868,2.29999999996862,2.29999999965034,-0.0768135606241062
14.1,23.4793179582037,26.7657697531143,1.05008345752521,2.29999999965034,2.29999999992337,-0.919897832159269
14.2,23.5937426484139,26.9652866452669,0.958093674320204,2.29999999992337,2.28775398045438,-0.89787213536172
14.3,23.7260111838661,27.1534489011148,0.867825842686796,2.28775398045438,2.25752761532475,-0.443478424710011
14.4,23.8739114573219,27.3279874122308,0.822884220511777,2.25752761532475,2.21636361008666,-0.0803223626419016
14.5,24.0274480746884,27.4934891236031,0.814702803393801,2.21636361008666,2.16850275569672,-0.0271231691069818
14.6,24.1795093778064,27.6547343921081,0.811930623149113,2.16850275569672,2.11522957150672,0.845994721540033
14.7,24.3287237972472,27.8120846353414,0.898660778101403,2.11522957150672,2.06477607609105,0.772168387860268
14.8,24.4604303558056,27.9776000238539,0.977764436221892,2.06477607609105,2.01874395825142,0.418582524466532
14.9,24.5758261034124,28.1488215875609,1.02057715543057,2.01874395825142,1.97471548417626,0.30985626465118
15,24.6813809894451,28.3209013299026,1.05225364083838,1.97471548417626,1.93235690679098,0.281207357891747
15.1,24.7792508362194,28.4924137362376,1.08099080227795,1.93235690679098,1.89225431836138,0.207351694722786
15.2,24.8701593953324,28.6629296182904,1.10216541266432,1.89225431836138,1.85415860982979,0.110196674808804
15.3,24.9556259431028,28.8317541818639,1.11341149121826,1.85415860982979,1.81715777249964,-0.00726414341672384
15.4,25.0375061930526,28.9981112261157,1.11267028567942,1.81715777249964,1.77967941412519,-0.0256617049341527
15.5,25.1178732960267,29.1610889928851,1.1100500740724,1.77967941412519,1.74188085238987,-0.0852575163115425
15.6,25.1970008085972,29.3204986065381,1.10133931486801,1.74188085238987,1.7030495514464,-0.0871830835810286
15.7,25.2758038654942,29.475841991537,1.09242222001231,1.7030495514464,1.6635620210455,-0.11744593729477
15.8,25.3542014366032,29.6270292879313,1.08039884797696,1.6635620210455,1.62318708489591,-0.101625946104775
15.9,25.4325513083396,29.7737797004607,1.06998347036178,1.62318708489591,1.58258766676071,-0.0881540140408777
16,25.5104868066894,29.9161644651748,1.06094192024242,1.58258766676071,1.54235271187981,-0.109806138498393
16.1,25.5877250255919,30.0542951814207,1.04967485796908,1.54235271187981,1.50231455572744,-0.13286175016865
16.2,25.6645115269017,30.1880574784069,1.03603459335895,1.50231455572744,1.46223644816204,-0.142106662351019
16.3,25.7410748927622,30.3173151329254,1.02143443019217,1.46223644816204,1.4221423198057,-0.139256731141795
16.4,25.8174245634342,30.4420231202061,1.0071161538079,1.4221423198057,1.38228508711918,-0.179199350877917
16.5,25.8934097184781,30.562236031288,0.98867950980877,1.38228508711918,1.34198024598707,-0.113472951988883
16.6,25.9694068327943,30.677698402805,0.976991411582685,1.34198024598707,1.30277157863243,-0.115347887762827
16.7,26.0444931299202,30.7889241093216,0.96510946778433,1.30277157863243,1.26474150544551,-0.11502547659021
16.8,26.1186634183967,30.8960264256748,0.953261044918854,1.26474150544551,1.22800356193158,-0.119306298413333
16.9,26.1918954190709,30.9991418213887,0.940973488747024,1.22800356193158,1.19255196167382,-0.0321596501015588
17,26.2642250249768,31.0983807028348,0.937661921105162,1.19255196167382,1.16057246922632,-0.0546565063842567
17.1,26.3347852890023,31.1945214899834,0.932045664849296,1.16057246922632,1.13175184887001,-0.0851638566753398
17.2,26.4039777940797,31.2876970329353,0.923312405210337,1.13175184887001,1.10547713576205,-0.129875106266958
17.3,26.472242969936,31.3779660101064,0.910016210573214,1.10547713576205,1.08060120596566,-0.0447376795570365
17.4,26.5400897444265,31.4652449432356,0.905439454450389,1.08060120596566,1.05993400539353,-0.0397111811482351
17.5,26.6067995708756,31.5502554644578,0.901390905199139,1.05993400539353,1.04419396012009,-0.0765468217308721
17.6,26.6725705781688,31.6333745089514,0.893620837332818,1.04419396012009,1.03260609435112,-0.0911420864027561
17.7,26.7379991719658,31.7147533107199,0.884404349394666,1.03260609435112,1.02516018070082,-0.058970359110202
17.8,26.803440621613,31.7946292778751,0.878464482303686,1.02516018070082,1.02440427397941,-0.0348632457087037
17.9,26.8688800687571,31.8735419683527,0.874975585177973,1.02440427397941,1.0337965534539,-0.0353588261510926
18,26.9345459805246,31.9521678495701,0.87147182686972,1.0337965534539,1.05715274999645,-0.0623397851939907
18.1,27.0010915566105,32.0312819408733,0.8653755787091,1.05715274999645,1.0980528338368,-0.095894198751521
18.2,27.0696325011447,32.1117670841645,0.856143343902633,1.0980528338368,1.16143190615216,-0.0653195597717154
18.3,27.1415939807341,32.1947052883546,0.849967835262619,1.16143190615216,1.27549423195854,-0.0659825502740596
18.4,27.2182493355795,32.2819589261,0.843959635678689,1.27549423195854,1.52219917690064,-0.099769159350176
18.5,27.3030070861571,32.3772740826839,0.835599692432786,1.47549423195854,1.77548804146276,-0.116220675094204
18.6,27.4019733552094,32.486711324404,0.825941337561832,1.67549423195854,1.9754880446057,-0.115180224137015
18.7,27.5155492797586,32.6098913494733,0.816172419865558,1.87549423195854,2.17548795036773,-0.196897294723035
18.8,27.6440233958099,32.7465265852141,0.799197849150107,2.07549423195854,2.29999999946022,-0.153020148868474
18.9,27.7887438546448,32.8952973883427,0.785389482349042,2.27549423195854,2.29999999999856,-0.0517001384926797
19,27.9496469916314,33.0561977317377,0.780274553352015,2.29999999999856,2.3,-0.0528171934561005
19.1,28.113112689036,33.2179968843065,0.774992834006408,2.3,2.3,0.0478845587633139
19.2,28.2774306801217,33.3789304041386,0.77978128988274,2.3,2.3,-0.0602011101696487
19.3,28.4409761672481,33.5406489053702,0.773761178865775,2.3,2.3,-0.0195544225790719
19.4,28.6054922482476,33.7013799200891,0.771805736607867,2.3,2.3,0.0536471503905981
19.5,28.7703223147306,33.8617889260183,0.777170451646927,2.3,2.3,-0.0117321303743496
19.6,28.9342894648222,34.023079885749,0.775997238609492,2.3,2.3,-0.012929474870209
19.7,29.0984457306826,34.1841783661229,0.774704291122472,2.3,2.3,-0.0523014268228724
19.8,29.2628101511492,34.3450644664693,0.769474148440184,2.3,2.3,-0.0472970639817925
19.9,29.4280137770007,34.5050887208982,0.764744442042005,2.3,2.3,-0.0720801097649329
20,29.5939724199611,34.6643298237163,0.757536431065512,2.3,2.3,-0.0496307343350254
20.1,29.7610745533924,34.8223705684713,0.752573357632009,2.3,2.3,-0.0278309258762309
20.2,29.9289589933914,34.9795800300384,0.749790265044386,2.3,2.3,-0.0190444964526086
