Time,X,Y,Theta,Velocity,Control_V,Control_Omega
0,5,5,0,0,2.3,0.92
0.1,5,5,0,0.2,2.3,0.92
0.2,5.02,5,0.008,0.4,2.3,0.92
0.3,5.05999872000683,5.00031999658668,0.024,0.6,2.3,0.92
0.4,5.11998144083625,5.00175985835066,0.048,0.8,2.3,0.92
0.5,5.19988929852961,5.00559838396052,0.08,1,2.3,0.92
0.6,5.29956946915987,5.01358985335744,0.12,1.2,2.3,0.92
0.7,5.41870650546234,5.02795531823211,0.168,1.4,2.3,0.92
0.8,5.55673546789219,5.05136483617968,0.224,1.6,2.3,0.92
0.9,5.71273814405169,5.08690586924112,0.288,1.8,2.3,0.92
1,5.88532463940871,5.13803219925202,0.36,2,2.3,0.92
1.1,6.07250400414429,5.20848704590704,0.44,2.2,2.3,0.92
1.2,6.27154937005269,5.30219372822155,0.528,2.3,2.3,0.92
1.3,6.47022714456188,5.41806927316557,0.62,2.3,2.3,0.92
1.4,6.65741918959427,5.55170736008915,0.712,2.3,2.3,0.92
1.5,6.83154222889096,5.70197767381106,0.804,2.3,2.3,0.92
1.6,6.99112352425846,5.86760922324785,0.896,2.3,2.3,0.92
1.7,7.13481333203499,6.04720109149678,0.988,2.3,2.3,0.92
1.8,7.26139631926528,6.23923428483548,1.08,2.3,2.3,0.340322742430679
1.9,7.36980184302524,6.44208458041901,1.11403227424307,2.3,2.3,0.301178015458499
2,7.47124247106439,6.64850599157353,1.14415007578892,2.3,2.3,0.293241705295034
2.1,7.56642107584211,6.85788849607801,1.17347424631842,2.3,2.3,0.235383784516405
2.2,7.65541967284015,7.06997161594468,1.19701262477006,2.3,2.3,0.0184681612800548
2.3,7.73940198413725,7.2840906748563,1.19885944089807,2.3,2.3,0.02791480283646
2.4,7.82298871390739,7.49836446841569,1.20165092118171,2.3,2.3,-0.0410145702503492
2.5,7.9059769777155,7.71287075753122,1.19754946415668,2.3,2.3,-0.0488715947676272
2.6,7.98984432937218,7.92703487059897,1.19266230467991,2.3,2.3,-0.0904364711879233
2.7,8.07475732948151,8.14078655459803,1.18361865756112,2.3,2.3,-0.190262026057559
2.8,8.16159992565199,8.35376158480197,1.16459245495537,2.3,2.3,-0.176046151328869
2.9,8.25247866554808,8.56504588292869,1.14698783982248,2.3,2.3,-0.20639393201673
3,8.34706270975088,8.77469763842394,1.12634844662081,2.3,2.3,-0.155925575491256
3.1,8.44595338680972,8.98235272261608,1.11075588907168,2.3,2.3,-0.143995960190627
3.2,8.54806978522256,9.1884406678608,1.09635629305262,2.3,2.3,-0.116862869553755
3.3,8.65314307758725,9.39303686340618,1.08467000609724,2.3,2.3,-0.0717491006455313
3.4,8.76060011056977,9.59639119963385,1.07749509603269,2.3,2.3,-0.0672867048342605
3.5,8.86951341421111,9.7989693136786,1.07076642554926,2.3,2.3,-0.0176997889397888
3.6,8.97978732342748,10.0008100056764,1.06899644665529,2.3,2.3,-0.0416342944957005
3.7,9.0904183134877,10.2024551991185,1.06483301720572,2.3,2.3,-0.084242320124752
3.8,9.20188787781381,10.4036380418982,1.05640878519324,2.3,2.3,-0.0842326888762157
3.9,9.31504827769329,10.6038747116146,1.04798551630562,2.3,2.3,-0.0996671361905047
4,9.42989129051402,10.8031511086271,1.03801880268657,2.3,2.3,-0.099407472714857
4.1,9.54671469729283,11.0012730196531,1.02807805541508,2.3,2.3,-0.0954637566754586
4.2,9.66550177937461,11.1982238488732,1.01853167974754,2.3,2.3,-0.0859274565930333
4.3,9.78616358681506,11.394031734887,1.00993893408823,2.3,2.3,-0.0424153932657804
4.4,9.90850344639157,11.5887955887172,1.00569739476166,2.3,2.3,-0.0645848399148246
4.5,10.031668301551,11.7830387828157,0.999238910770173,2.3,2.3,-0.069470154991336
4.6,10.1560850958303,11.9764824730753,0.992291895271039,2.3,2.3,-0.0636545587664056
4.7,10.2818427333859,12.1690571770123,0.985926439394399,2.3,2.3,-0.0361422387220369
4.8,10.4088236406641,12.3608274802055,0.982312215522195,2.3,2.3,-0.00645135097695878
4.9,10.5364968178908,12.552137594462,0.981667080424499,2.3,2.3,-0.0186683667919341
5,10.6642933894094,12.7433653024651,0.979800243745305,2.3,2.3,-0.0672005504211226
5.1,10.7924467289295,12.9343541020577,0.973080188703193,2.3,2.3,-0.0577429215622131
5.2,10.9218806203989,13.1244773982081,0.967305896546972,2.3,2.3,-0.0433896662833004
5.3,11.0524101754098,13.313850139828,0.962966929918642,2.3,2.3,-0.0691006030489728
5.4,11.1837601811347,13.5026547372193,0.956056869613745,2.3,2.3,-0.0491129266526877
5.5,11.3164116917319,13.6905471977819,0.951145576948476,2.3,2.3,-0.00590711110130577
5.6,11.4499843936561,13.8777859045193,0.950554865838345,2.3,2.3,0.0412967996644475
5.7,11.5836676762537,14.0649456757147,0.95468454580479,2.3,2.3,-0.0512574703890932
5.8,11.7165769111577,14.2526559185818,0.949558798765881,2.3,2.3,0.00903166197823649
5.9,11.850446551093,14.4396824394381,0.950461964963704,2.3,2.29999999999993,0.0450936432898412
6,11.9841472204201,14.626829790532,0.954971329292689,2.29999999999993,2.29999999999995,0.00338560192847309
6.1,12.1170026176611,14.8145781418535,0.955309889485536,2.29999999999995,2.29999999999943,0.0662526961319407
6.2,12.2497944431712,15.0023714619628,0.961935159098732,2.29999999999943,2.29999999999963,0.0219849118145658
6.3,12.3813391820214,15.1910404357789,0.964133650280188,2.29999999999963,2.299999999999,0.108221220940629
6.4,12.5124688162289,15.3799981533577,0.974955772374254,2.299999999999,2.29999999999867,0.0665083474368603
6.5,12.6415458880955,15.5703638790499,0.981606607117941,2.29999999999867,2.29999999999843,0.103464148388262
6.6,12.7693540235521,15.7615838584219,0.991953021956768,2.29999999999843,2.29999999999972,0.00590591166289166
6.7,12.8951769123138,15.954115935395,0.992543613123057,2.29999999999972,2.29999999999923,0.0152426359254002
6.8,13.020886071395,16.1467222886731,0.994067876715597,2.29999999999923,2.29999999999713,-0.0853723639240087
6.9,13.1463015017028,16.3395200320227,0.985530640323189,2.29999999999713,2.29999999999806,-0.0262977324507258
7,13.2733583015405,16.5312400612707,0.982900867078117,2.29999999999806,2.29999999999946,-0.0101122532037349
7.1,13.4009188416571,16.7226252973917,0.981889641757744,2.29999999999946,2.29999999999923,-0.0125993558881253
7.2,13.5286728501172,16.9138814432337,0.980629706168932,2.29999999999923,2.29999999999878,0.019335898360289
7.3,13.6566677275376,17.1049764754928,0.982563296004961,2.29999999999878,2.29999999999891,0.0124341021827784
7.4,13.7842928665045,17.2963186399616,0.983806706223239,2.29999999999891,2.29999999999739,0.0788092539386702
7.5,13.9116799900716,17.4878193468774,0.991687631617111,2.29999999999739,2.29999999999857,0.0127186655371835
7.6,14.037553970555,17.6803180248914,0.992959498170829,2.29999999999857,2.29999999999869,0.00646551886180237
7.7,14.1631830166646,17.872976642071,0.993606050057009,2.29999999999869,2.29999999999702,0.0315345824534177
7.8,14.2886874727322,18.0657164446731,0.996759508302353,2.29999999999702,2.29999999999661,0.104485055168971
7.9,14.413583508861,18.2588510613506,1.00720801381925,2.29999999999661,2.29999999999768,-0.0143466197197422
8,14.5364547961318,18.4532800889269,1.00577335184728,2.29999999999768,2.2999999999961,-0.0359871173599513
8.1,14.6596048967889,18.6475326377082,1.00217464011128,2.2999999999961,2.29999999999735,-0.00341692924725667
8.2,14.7834532574233,18.8413407478791,1.00183294718656,2.29999999999735,2.29999999999436,0.067644651310994
8.3,14.9073678336866,19.0351065286283,1.00859741231766,2.29999999999436,2.29999999999474,0.0480925272900323
8.4,15.0299688630481,19.2297060856659,1.01340666504667,2.29999999999474,2.2999999999947,0.054292648975579
8.5,15.1516325997551,19.4248930093321,1.01883592994422,2.2999999999947,2.29999999999639,0.0189212480751196
8.6,15.2722348270237,19.6207375976607,1.02072805475173,2.29999999999639,2.29999999999537,-0.0408427294138918
8.7,15.3924662762233,19.8168100297444,1.01664378181034,2.29999999999537,2.29999999999568,-0.0282129879666609
8.8,15.5134975337191,20.0123897697707,1.01382248301368,2.29999999999568,2.29999999999459,-0.0691505490835814
8.9,15.6350800976806,20.2076272665287,1.00690742810532,2.29999999999459,2.29999999999433,-0.0584549145321296
9,15.7580098219877,20.4020193519683,1.0010619366521,2.29999999999433,2.29999999999403,0.0717006276560455
9.1,15.8820737568632,20.5956895356904,1.00823199941771,2.29999999999403,2.29999999999549,-0.051596405575173
9.2,16.0047458872264,20.7902442797391,1.00307235886019,2.29999999999549,2.29999999999749,-0.150050113436788
9.3,16.1284202128053,20.9841634927955,0.988067347516528,2.29999999999749,2.29999999999697,-0.148925274482589
9.4,16.2549902667897,21.1762052107483,0.973174820068266,2.29999999999697,2.29999999999654,-0.124853338149364
9.5,16.3844061660525,21.3663407545529,0.960689486253327,2.29999999999654,2.29999999999614,-0.131744318507428
9.6,16.5161858226001,21.5548457203231,0.947515054402582,2.29999999999614,2.29999999999409,-0.104694287363687
9.7,16.6504374170875,21.741598255453,0.937045625666204,2.29999999999409,2.29999999999329,-0.0821486926560338
9.8,16.7866368106949,21.9269350439778,0.928830756400598,2.29999999999329,2.29999999999383,-0.0737429562093749
9.9,16.9243541090466,22.1111467312683,0.921456460779662,2.29999999999383,2.29999999999661,-0.172060183417584
10,17.0634260819926,22.2943378509783,0.904250442437925,2.29999999999661,2.29999999999654,-0.133904517644647
10.1,17.205629303767,22.4751090979089,0.890859990673459,2.29999999999654,2.2999999999962,-0.115481160589427
10.2,17.3502403132401,22.6539600300815,0.879311874614515,2.2999999999962,2.29999999999586,-0.108848245249442
10.3,17.4969070256475,22.8311290890941,0.868427050089569,2.29999999999586,2.29999999999609,-0.0968731187834517
10.4,17.6454934656867,23.0066912428639,0.858739738211225,2.29999999999609,2.29999999999666,-0.0735007393578721
10.5,17.7957736325439,23.1808057782973,0.85138966427544,2.29999999999666,2.29999999999755,-0.0692257838140997
10.6,17.9473294832686,23.353811050214,0.844467085894033,2.29999999999755,2.29999999999828,0.0745647565120523
10.7,18.1000793355608,23.5257630278839,0.851923561545236,2.29999999999828,2.2999999999991,0.09617155399122
10.8,18.2515427976474,23.6988491903946,0.861540716944354,2.2999999999991,2.3,-0.0296128632276092
10.9,18.4013346845219,23.8733839738234,0.858579430621594,2.3,2.29999999999996,-0.0226203830384919
11,18.5516427613297,24.0474744159686,0.856317392317745,2.29999999999996,2.29999999999972,0.329370042185087
11.1,18.7023442525009,24.2212244103824,0.889254396536257,2.29999999999972,2.29999999999987,0.188009100079553
11.2,18.8472422374603,24.3998429255333,0.908055306544211,2.29999999999987,2.29999999999976,0.228389355774152
11.3,18.9887566215294,24.5811539265826,0.930894242121628,2.29999999999976,2.29999999999977,0.132481033434566
11.4,19.1260935087667,24.7656493991666,0.944142345465084,2.29999999999977,2.2999999999989,0.0849345695048299
11.5,19.2609742004381,24.951948081433,0.95263580241557,2.2999999999989,2.29999999999947,0.0177940783260533
11.6,19.394267726259,25.1393856336316,0.954415210248175,2.29999999999947,2.29999999999973,0.00274981715542273
11.7,19.5272275133844,25.3270600725079,0.954690191963717,2.29999999999973,2.29999999999827,-0.0396553392685463
11.8,19.6601356884444,25.5147710657987,0.95072465803686,2.29999999999827,2.29999999999694,-0.0676159677867954
11.9,19.7937871908461,25.7019535326745,0.943963061258177,2.29999999999694,2.29999999999707,-0.137569467132046
12,19.9287012807609,25.8882280299689,0.930206114544973,2.29999999999707,2.2999999999986,-0.0969153350424078
12.1,20.0661650918946,26.0726289535796,0.920514581040739,2.2999999999986,2.29999999999813,-0.099048627425499
12.2,20.2054095471315,26.2556890029779,0.910609718298187,2.29999999999813,2.29999999999868,-0.123187617427237
12.3,20.3464603270602,26.4373608981115,0.898290956555466,2.29999999999868,2.29999999999626,-0.0919536750999391
12.4,20.4897383209521,26.6172814818873,0.889095589045462,2.29999999999626,2.29999999999503,-0.0954163943690566
12.5,20.6346646700422,26.7958769839003,0.879553949608552,2.29999999999503,2.29999999999431,-0.204735643655281
12.6,20.7812884899537,26.9730815420649,0.859080385243017,2.29999999999431,2.29999999998936,-0.0678125974352231
12.7,20.931509336493,27.1472472598878,0.85229912549948,2.29999999998936,2.29999999998866,-0.00293387842805634
12.8,21.082907782975,27.3203902944065,0.852005737656675,2.29999999998866,2.29999999998283,-0.13732089359232
12.9,21.2343570210018,27.4934889030103,0.838273648297408,2.29999999998283,2.29999999996927,-0.189593660302315
13,21.3881689106967,27.6644915421352,0.819314282267064,2.29999999996927,2.29999999994112,0.24845480118872
13.1,21.5451950641933,27.8325474468713,0.84415976238624,2.29999999994112,2.29999999993837,0.192075952857986
13.2,21.6979977541524,28.0044524727971,0.863367357672062,2.29999999993837,2.29999999993178,0.158637559169954
13.3,21.8474705789575,28.1792605808526,0.879231113589103,2.29999999993178,2.29999999992017,0.0952287163443523
13.4,21.9941515992373,28.3564177943285,0.888753985223586,2.29999999992017,2.29999999989925,0.0261688197214201
13.5,22.1391389487715,28.5349637785213,0.891370867195752,2.29999999989925,2.29999999985944,0.0148297413273658
13.6,22.2836585686288,28.7138885657132,0.892853841328514,2.29999999985944,2.29999999979384,0.01950242063837
13.7,22.4279126888352,28.8930274749346,0.894804083392407,2.29999999979384,2.29999999968384,-0.0836266816636495
13.8,22.5718171706917,29.0724473737533,0.886441415225642,2.29999999968384,2.29999999929675,-0.143693755951884
13.9,22.7172170322346,29.2506575874021,0.872072039628035,2.29999999929675,2.29999999999889,-0.00990907338805614
14,22.8651625643772,29.426760169685,0.871081132289532,2.29999999999889,2.29999999999749,-0.121026782695181
14.1,23.013282525244,29.6027160652747,0.858978454020006,2.29999999999749,2.29999999998832,-0.351817323481569
14.2,23.1635211239276,29.7768664699985,0.823796721671709,2.29999999998832,2.29999999983138,-0.26878815585102
14.3,23.3197924020358,29.945624544288,0.796917906084773,2.29999999983138,2.29999999998201,-0.236199763131158
14.4,23.480542703807,30.1101217797442,0.773297929773204,2.29999999998201,2.29881426134237,-0.181804554021345
14.5,23.6451332256466,30.2707765652929,0.75510809681116,2.29881426134237,2.28806262933476,-0.176126942684023
14.6,23.8125322965825,30.4283297979837,0.737412640294466,2.28806262933476,2.26895558319249,-0.121870540685189
14.7,23.9818971429996,30.5821734028417,0.725122958124211,2.26895558319249,2.24366605821742,-0.103867973413745
14.8,24.1517098353793,30.7326567703337,0.714619085797541,2.24366605821742,2.21345462283153,-0.150032866894662
14.9,24.3211835626633,30.8796908805546,0.699411019293878,2.21345462283153,2.17811505065759,-0.871146284228318
15,24.4905618663173,31.0221858065157,0.610882969804228,2.17811505065759,2.12465743742426,-0.849766662477684
15.1,24.6689803906965,31.1471205170542,0.523768241354941,2.12465743742426,2.05740230170051,-0.822867051919653
15.2,24.8529631167353,31.2533845692231,0.438791637584865,2.05740230170051,1.97986092594746,-0.791853633513464
15.3,25.0392126885321,31.3407924596905,0.356504974574892,1.97986092594746,1.89487774267043,-0.757862934944767
15.4,25.2247498734662,31.4098898248187,0.277319749146764,1.89487774267043,1.80475263932211,-0.477576190765447
15.5,25.4069978292027,31.4617675582553,0.227177226864559,1.80475263932211,1.71263782705829,-0.240126086147162
15.6,25.5828359696213,31.5024156734091,0.201873091868981,1.71263782705829,1.62050330509635,-0.0928742366438847
15.7,25.7506218529441,31.5367548729377,0.192057627109652,1.62050330509635,1.52945836501643,0.00141788288629349
15.8,25.909692654028,31.5676868929305,0.192207855710576,1.52945836501643,1.44020228641476,0.102527371718439
15.9,26.0598219728863,31.5969036094184,0.203096003007459,1.44020228641476,1.35336473858612,0.135448152593325
16,26.2008821250937,31.6259528730432,0.217509910322597,1.35336473858612,1.26923795203686,0.172778380430561
16.1,26.3330297785644,31.6551583320996,0.235932946545985,1.26923795203686,1.1880847399843,0.166530234103756
16.2,26.4564373642784,31.6848267930831,0.253723469912935,1.1880847399843,1.10996593734035,0.207983444637719
16.3,26.5714421262948,31.714648902455,0.275985590616885,1.10996593734035,1.03507603667466,0.199491503841792
16.4,26.6782382866005,31.7448949594629,0.297378103457253,1.03507603667466,0.963403492464929,0.189436499420368
16.5,26.7772027374253,31.7752241778822,0.317731069016872,0.963403492464929,0.894904205471159,0.232362287769298
16.6,26.8687209346477,31.8053220593708,0.342745884925154,0.894904205471159,0.82967240806621,0.218842106637953
16.7,26.9530061802657,31.8353975101707,0.366350710114042,0.82967240806621,0.767608974040775,0.185310803939854
16.8,27.0304677792034,31.8651172634852,0.386380082638978,0.767608974040775,0.70854415467848,0.15549485002416
16.9,27.1015698054952,31.8940436740382,0.403225785409588,0.70854415467848,0.652312816717898,0.135520456710711
17,27.1667416985459,31.9218460578835,0.417946058410641,0.652312816717898,0.598772484824616,0.121980180637591
17.1,27.2263581669802,31.9483224020413,0.431234784468047,0.598772484824616,0.547794805209756,0.119733883201554
17.2,27.2807536720019,31.9733506644513,0.444322414011164,0.547794805209756,0.499269187026197,0.12804850567034
17.3,27.3302141816663,31.99689741518,0.458371810217424,0.499269187026197,0.45309096040831,0.118477225409858
17.4,27.3749873513116,32.0189895063226,0.471427031614513,0.45309096040831,0.409138402337596,0.119323694038229
17.5,27.415354180886,32.039567000197,0.484641261034766,0.409138402337596,0.367294806390213,0.0935856617004757
17.6,27.4515564708047,32.058628388586,0.495065990010966,0.367294806390213,0.327462933970308,0.0722911130803609
17.7,27.4838761130536,32.0760781872358,0.50317443454869,0.327462933970308,0.289572284598359,0.0677739687160065
17.8,27.512563707647,32.0918687428843,0.510838656514317,0.289572284598359,0.253548429877807,0.0516942560978197
17.9,27.5378241053892,32.1060261927246,0.516742547871906,0.253548429877807,0.219360199153605,0.0462106258014587
18,27.5598684460375,32.1185527688057,0.522083822934948,0.219360199153605,0.186966681731424,0.0386855510681674
18.1,27.5788821907517,32.1294919864044,0.526622637074501,0.186966681731424,0.156348071975252,0.039566945089294
18.2,27.5950456383048,32.1388892394058,0.531354195536422,0.156348071975252,0.127457642053282,0.023777358920576
18.3,27.6085247446869,32.1468114163316,0.534270885476709,0.127457642053282,0.100344171014652,0.0204133297470616
18.4,27.6194942608889,32.1533017336947,0.536863796305218,0.100344171014652,0.0749979481776361,0.0127506689693939
18.5,27.6281170050437,32.1584337712828,0.538143251612835,0.0749979481776361,0.051464499355542,0.0106323749721648
18.6,27.6345567925379,32.1622777352965,0.538940657920002,0.051464499355542,0.0297446784438517,0.00705494615093813
18.7,27.6389737478413,32.1649190328539,0.539303737191641,0.0297446784438517,0.00983270200614058,0.00247345657691814
18.8,27.6415260388969,32.1664465371338,0.539377309362166,0.00983270200614058,0,0
18.9,27.6423697129122,32.1669515464835,0.539377309362166,0,0,0
19,27.6423697129122,32.1669515464835,0.539377309362166,0,0,0
19.1,27.6423697129122,32.1669515464835,0.539377309362166,0,0,0
19.2,27.6423697129122,32.1669515464835,0.539377309362166,0,0,0
19.3,27.6423697129122,32.1669515464835,0.539377309362166,0,0,0
19.4,27.6423697129122,32.1669515464835,0.539377309362166,0,0,0
19.5,27.6423697129122,32.1669515464835,0.539377309362166,0,0,0
19.6,27.6423697129122,32.1669515464835,0.539377309362166,0,0,0
19.7,27.6423697129122,32.1669515464835,0.539377309362166,0,0,0
19.8,27.6423697129122,32.1669515464835,0.539377309362166,0,0,0
19.9,27.6423697129122,32.1669515464835,0.539377309362166,0,0,0
20,27.6423697129122,32.1669515464835,0.539377309362166,0,0,0
20.1,27.6423697129122,32.1669515464835,0.539377309362166,0,0,0
20.2,27.6423697129122,32.1669515464835,0.539377309362166,0,0,0
20.3,27.6423697129122,32.1669515464835,0.539377309362166,0,0,0
20.4,27.6423697129122,32.1669515464835,0.539377309362166,0,0,0
20.5,27.6423697129122,32.1669515464835,0.539377309362166,0,0,0
20.6,27.6423697129122,32.1669515464835,0.539377309362166,0,0,0
20.7,27.6423697129122,32.1669515464835,0.539377309362166,0,0,0
20.8,27.6423697129122,32.1669515464835,0.539377309362166,0,0,0
20.9,27.6423697129122,32.1669515464835,0.539377309362166,0,0,0
21,27.6423697129122,32.1669515464835,0.539377309362166,0,0,0
21.1,27.6423697129122,32.1669515464835,0.539377309362166,0,0,0
21.2,27.6423697129122,32.1669515464835,0.539377309362166,0,0,0
