Time,X,Y,Theta,Velocity,Control_V,Control_Omega
0,5,5,0,0,2.3,0.92
0.1,5,5,0,0.2,2.3,0.92
0.2,5.02,5,0.008,0.4,2.3,0.92
0.3,5.05999872000683,5.00031999658668,0.024,0.6,2.3,0.92
0.4,5.11998144083625,5.00175985835066,0.048,0.8,2.3,0.92
0.5,5.19988929852961,5.00559838396052,0.08,1,2.3,0.92
0.6,5.29956946915987,5.01358985335744,0.12,1.2,2.3,0.92
0.7,5.41870650546234,5.02795531823211,0.168,1.4,2.3,0.92
0.8,5.55673546789219,5.05136483617968,0.224,1.6,2.3,0.92
0.9,5.71273814405169,5.08690586924112,0.288,1.8,2.3,0.92
1,5.88532463940871,5.13803219925202,0.36,2,2.3,0.92
1.1,6.07250400414429,5.20848704590704,0.44,2.2,2.3,0.92
1.2,6.27154937005269,5.30219372822155,0.528,2.3,2.3,0.92
1.3,6.47022714456188,5.41806927316557,0.62,2.3,2.3,0.92
1.4,6.65741918959427,5.55170736008915,0.712,2.3,2.3,0.92
1.5,6.83154222889096,5.70197767381106,0.804,2.3,2.3,0.92
1.6,6.99112352425846,5.86760922324785,0.896,2.3,2.3,0.656063210020079
1.7,7.13481333203499,6.04720109149678,0.961606321002008,2.3,2.3,0.36340401650594
1.8,7.26642010531806,6.23582679819134,0.997946722652601,2.3,2.3,0.264638410323376
1.9,7.39108676129333,6.4291095570912,1.02441056368494,2.3,2.3,0.271836932338054
2,7.5105953584216,6.62562341210512,1.05159425691874,2.3,2.3,0.0620380069997669
2.1,7.62471848817611,6.82531294927479,1.05779805761872,2.3,2.3,-0.0494160354304255
2.2,7.7376005956571,7.02570663632768,1.05285645407568,2.3,2.3,-0.200204230518759
2.3,7.8514715870053,7.22554006028217,1.0328360310238,2.3,2.3,-0.198006328849109
2.4,7.96932024081305,7.42305384409409,1.01303539813889,2.3,2.3,-0.21361345945653
2.5,8.09105643557924,7.61819558459019,0.991674052193239,2.3,2.3,-0.1642727105928
2.6,8.21693303007231,7.81069255329055,0.975246781133959,2.3,2.3,-0.205518534975826
2.7,8.34595469838051,8.00109583348018,0.954694927636376,2.3,2.3,-0.211951579991189
2.8,8.47886198450122,8.18880745617847,0.933499769637257,2.3,2.3,-0.213217491985304
2.9,8.6157176980778,8.37366013714753,0.912178020438727,2.3,2.3,-0.132152709489641
3,8.75648338823919,8.55555301901316,0.898962749489763,2.3,2.3,-0.135408934293733
3.1,8.89964048043232,8.73556981532619,0.885421856060389,2.3,2.3,-0.0586435577794449
3.2,9.04522196224884,8.91363169263885,0.879557500282445,2.3,2.3,-0.00210211533881316
3.3,9.19184515296412,9.09083677141616,0.879347288748563,2.3,2.3,-0.0384779730830847
3.4,9.33850559099098,9.26801102439262,0.875499491440255,2.3,2.3,-0.0744357248635509
3.5,9.48584667225686,9.44461964754393,0.8680559189539,2.3,2.3,-0.128087827001948
3.6,9.63449825864335,9.62012664417022,0.855247136253705,2.3,2.3,-0.179121143795531
3.7,9.78538562045382,9.7937152499192,0.837335021874152,2.3,2.3,-0.19089720726452
3.8,9.93935794996619,9.96457344183441,0.8182453011477,2.3,2.3,-0.121319152055802
3.9,10.0965636623013,10.1324613925909,0.80611338594212,2.3,2.3,0.113108237521272
4,10.2557945581644,10.2984298287546,0.817424209694247,2.3,2.3,0.0673960230706235
4.1,10.4131380688522,10.4661886426645,0.82416381200131,2.3,2.3,0.0255414686344354
4.2,10.5693473869762,10.6350040712581,0.826717958864753,2.3,2.3,-0.0488071865882385
4.3,10.7251250166431,10.8042179303103,0.82183724020593,2.3,2.3,-0.00102621823184304
4.4,10.8817266728522,10.9726694701447,0.821734618382745,2.3,2.3,-0.00914422745355311
4.5,11.0383456150408,11.1411049383446,0.82082019563739,2.3,2.3,-0.0814393558248453
4.6,11.1951185129512,11.3093971202211,0.812676260054905,2.3,2.3,-0.114617635914921
4.7,11.3532567575503,11.4764069869809,0.801214496463413,2.3,2.3,-0.19353121445207
4.8,11.5132988004903,11.6415933801603,0.781861375018206,2.3,2.3,-0.201839780678362
4.9,11.6765075457983,11.8036517198253,0.76167739695037,2.3,2.3,-0.0211861530988749
5,11.8429538070694,11.9623830718288,0.759558781640483,2.3,2.3,-0.00985435567882481
5.1,12.009735985212,12.1207614322637,0.7585733460726,2.3,2.29999999999926,-0.0907857645644803
5.2,12.1766741540191,12.2789753627354,0.749494769616149,2.29999999999926,2.29999999999876,-0.0617658492714867
5.3,12.3450417808391,12.435667233102,0.743318184688999,2.29999999999876,2.29999999999858,0.0408163168931465
5.4,12.5143740105307,12.5913161842311,0.747399816378314,2.29999999999858,2.29999999999728,0.0898447169239587
5.5,12.6830695297834,12.7476549887039,0.756384288070715,2.29999999999728,2.29999999999648,0.101914411068985
5.6,12.8503536378027,12.9055031030546,0.766575729177617,2.29999999999648,2.29999999999944,0.144422933052067
5.7,13.0160203864624,13.0650478566142,0.781018022482805,2.29999999999944,2.29999999999862,0.0275598736752883
5.8,13.1793657460252,13.2269684961548,0.783774009850335,2.29999999999862,2.29999999999855,-0.0203077683623995
5.9,13.3422642345741,13.389338697942,0.781743233014095,2.29999999999855,2.299999999997,-0.0492931723311079
6,13.5054921246401,13.5513777546677,0.776813915780981,2.299999999997,2.29999999999615,-0.0510906130607625
6.1,13.6695167703206,13.7126102439781,0.771704854474903,2.29999999999615,2.29999999999673,-0.0115709440155558
6.2,13.8343630183673,13.8730026206822,0.770547760073348,2.29999999999673,2.29999999999512,0.0103419828094195
6.3,13.9993947451401,14.033204147386,0.77158195835429,2.29999999999512,2.2999999999916,0.0221413439004681
6.4,14.1642607035426,14.1935762639143,0.773796092744341,2.2999999999916,2.29999999998783,0.0196670066809116
6.5,14.3287711726981,14.3543130224292,0.775762793412435,2.29999999998783,2.29999999997974,0.0888984072170204
6.6,14.4929652028109,14.5153730127271,0.784652634134168,2.29999999997974,2.2999999999705,0.0857592803652697
6.7,14.6557209660973,14.6778862783891,0.79322856217073,2.2999999999705,2.2999999999569,0.0254142671594192
6.8,14.8170770593703,14.8417893325471,0.795769988886687,2.2999999999569,2.29999999993117,0.0292832391681589
6.9,14.9780160844029,15.0061019316366,0.798698312803535,2.29999999993117,2.29999999988437,-0.0683605194181153
7,15.1384732595756,15.1708851071505,0.791862260861585,2.29999999988437,2.29999999976155,-0.0895507149804726
7.1,15.3000531431223,15.3345675473441,0.782907189363059,2.29999999976155,2.29999999930419,-0.0503581084744337
7.2,15.4630923162551,15.4967964843844,0.777871378514615,2.29999999930419,2.29999999999852,-0.100197200386791
7.3,15.6269463728607,15.6582023334167,0.76785165847896,2.29999999999852,2.29999999998206,-0.919897903355288
7.4,15.7924094188975,15.8179583361089,0.675861868142773,2.29999999998206,2.29999999996222,-0.919897974533585
7.5,15.9718480777902,15.9618394248383,0.583872070688621,2.29999999996222,2.29999999989171,-0.460837207225981
7.6,16.1637449891636,16.0886289173193,0.53778834996461,2.29999999989171,2.28977059504254,-0.1699580732337
7.7,16.3612790336282,16.2064436077127,0.520716614950394,2.28977059504254,2.26872956223846,0.0875010996841034
7.8,16.5599081342976,16.3203601304233,0.529547876658504,2.26872956223846,2.23860095219444,0.183272326207432
7.9,16.755707559887,16.434963460238,0.548121769607107,2.23860095219444,2.20066361244226,0.31635824073226
8,16.9467732133227,16.5516136137263,0.580302965085313,2.20066361244226,2.15632698541467,0.43435351708976
8.1,17.1308139584746,16.6722710108274,0.624631398873936,2.15632698541467,2.10706534124643,0.465714451237333
8.2,17.3057306174384,16.7983726487914,0.672291650269206,2.10706534124643,2.05410426370639,0.558530122053636
8.3,17.4705866777937,16.9295965905359,0.72958472360609,2.05410426370639,1.99898653158362,0.590642607952538
8.4,17.6237101416807,17.0665149898437,0.790277553705391,1.99898653158362,1.94302885366888,0.542032284437437
8.5,17.7643684546376,17.208552697973,0.846041791803452,1.94302885366888,1.88698337305757,0.754705223479772
8.6,17.8931818813046,17.3540199189275,0.923753871632736,1.88698337305757,1.83366481443665,0.733380245845234
8.7,18.0069347695613,17.5045766953117,0.999224389425488,1.83366481443665,1.78442413077768,0.713686201226923
8.8,18.1061277473222,17.6587973803055,1.07256240661361,1.78442413077768,1.74072025776696,0.696206597718867
8.9,18.1914008995699,17.8155461738918,1.14393101667218,1.74072025776696,1.70426620994272,0.681626555463778
9,18.2634701010211,17.9739983760229,1.2135516631654,1.70426620994272,1.67726581832769,0.670827523019048
9.1,18.3230672999945,18.1336649254879,1.28171430427383,1.67726581832769,1.66283712462745,0.665056553574308
9.2,18.3708815290246,18.2944318554068,1.34879703944038,1.66283712462745,1.66585465510015,0.503429209437915
9.3,18.4074939242359,18.4566348317891,1.39904876917636,1.66585465510015,1.68734642813719,0.312998101789092
9.4,18.4359641225999,18.6207694263276,1.42994991290169,1.68734642813719,1.72498706669901,0.21099475790899
9.5,18.4596512937562,18.7878331794522,1.45058898075248,1.72498706669901,1.77865997060351,0.162765124145372
9.6,18.4803370039532,18.9590870996889,1.46637433257356,1.77865997060351,1.85148347118073,0.0796701150797516
9.7,18.4988763910598,19.1359842563534,1.47402798148545,1.85148347118073,1.94360936868099,-0.117139616157801
9.8,18.5167649413168,19.3202664047299,1.46286925449887,1.94360936868099,2.03833479942022,-0.240111293154736
9.9,18.5377010480545,19.5134964572966,1.43997396963034,2.03833479942022,2.12313781299642,-0.27210322991444
10,18.5642910270045,19.7155881705475,1.4138504896012,2.12313781299642,2.19666898650499,-0.235628302625121
10.1,18.5974761626128,19.9252924587831,1.39107640018723,2.19666898650499,2.26691652532584,-0.287817570513555
10.2,18.636742503361,20.1414213574686,1.36318653640729,2.26691652532584,2.29999999996057,-0.299763273488161
10.3,18.6834685512337,20.3632451203484,1.33364139213043,2.29999999996057,2.29999999881061,-0.292229530360046
10.4,18.7375043253015,20.5868074944615,1.30441843907982,2.29999999881061,2.29999999999936,-0.352173628391154
10.5,18.7980492511568,20.8086955561017,1.2692010762589,2.29999999999936,2.29999999999816,-0.339288610686832
10.6,18.8663693322955,21.0283142404461,1.2352722151902,2.29999999999816,2.29999999999507,-0.433712290753874
10.7,18.9421000755481,21.2454889501301,1.19190098611476,2.29999999999507,2.29999999984145,-0.406786809089512
10.8,19.0271757841589,21.4591759263456,1.15122230520309,2.29999999984145,2.29999999973804,-0.47573679014393
10.9,19.12087121993,21.669226313892,1.10364862618656,2.29999999973804,2.2842823676312,-0.312277216719566
11,19.2244497481027,21.8745832920776,1.07220603360033,2.2842823676312,2.26602534304027,-0.282618009198949
11.1,19.333681373458,22.0752021131611,1.04371653161083,2.26602534304027,2.24911311606063,-0.315568370631939
11.2,19.4476650804128,22.2710500723077,1.01192240261804,2.24911311606063,2.23000446292051,-0.280297201210179
11.3,19.5669202072714,22.4617417417804,0.983652499031785,2.23000446292051,2.21344402254754,-0.317290749681857
11.4,19.6904592092194,22.6473954895048,0.951686034977295,2.21344402254754,2.19505291748598,-0.223880230813926
11.5,19.8189077599847,22.8276572830602,0.929110435331651,2.19505291748598,2.18825682626345,-0.247045990424155
11.6,19.9502919583794,23.0035002969045,0.90432911096765,2.18825682626345,2.19155874105198,-0.20016403353216
11.7,20.0855728499376,23.1754995985197,0.884342865354223,2.19155874105198,2.21724023601163,-0.203218313041679
11.8,20.2244733895267,23.3450163742578,0.864256414501723,2.21724023601163,2.2736548383614,-0.172905921573927
11.9,20.3684179284352,23.513662490016,0.847394841676769,2.2736548383614,2.29999999991358,-0.13274588970725
12,20.518919806737,23.6840862203697,0.834272305397777,2.29999999991358,2.29999999999841,-0.919894229941262
12.1,20.6734147034774,23.8544720380811,0.742282882407044,2.29999999999841,2.29999999995577,-0.919897955355332
12.2,20.8429079861051,24.0099455957815,0.650293086869805,2.29999999995577,2.22601128010248,-0.799605677708501
12.3,21.0259664563008,24.149192127112,0.567674769742071,2.22601128010248,2.11764924101314,-0.462394624744866
12.4,21.2136533691072,24.2688787385297,0.519069191886865,2.11764924101314,2.00492074796228,-0.210742825463502
12.5,21.3975248934909,24.3739294196338,0.496809988631808,2.00492074796228,1.9003727478308,0.00945576410626755
12.6,21.5737789735192,24.4694886752268,0.497807585427811,1.9003727478308,1.81691179940281,0.185230549370316
12.7,21.7407517190963,24.5602315429432,0.51718150815784,1.81691179940281,1.78314417239198,0.71317399027091
12.8,21.8986806331011,24.6500655175261,0.589849453801977,1.78314417239198,1.92525631024683,0.770013180146736
12.9,22.0468642696416,24.7492504017424,0.661166945791791,1.92525631024683,2.04517690443657,0.817976331380316
13,22.1988201718803,24.8674685153134,0.738168308862452,2.04517690443657,2.14629050196147,0.858416647935001
13.1,22.3501023996561,25.0050954504082,0.81996589875702,2.14629050196147,2.23219446867457,0.892775869024126
13.2,22.4965322406569,25.162015592049,0.905807719214745,2.23219446867457,2.29999999976917,0.569290142835375
13.3,22.6342698378031,25.337672290732,0.961058428259772,2.29999999976917,2.29999999999967,0.423151966143421
13.4,22.7659799379702,25.5262258627039,1.00337362486987,2.29999999999967,2.29999999929836,0.183068591601969
13.5,22.8895958366703,25.7201823258304,1.02168048403565,2.29999999929836,2.29999999999903,0.213363412796493
13.6,23.0096404862033,25.9163691808595,1.0430168253088,2.29999999999903,2.29999999999788,0.100865273977177
13.7,23.1254722201767,26.1150725009241,1.05310335270652,2.29999999999788,2.29999999999331,0.0940715242014357
13.8,23.2392938694558,26.3149340333791,1.06251050512669,2.29999999999331,2.29999999997835,-0.00245082812737747
13.9,23.3512303823072,26.5158574443853,1.06226542231395,2.29999999997835,2.29999999984331,-0.110270382552906
14,23.4632161346704,26.7167534156407,1.05123838405801,2.29999999984331,2.29999999993474,-0.919897874195943
14.1,23.5774103212759,26.9164023268281,0.959248596642071,2.29999999993474,2.28930720760057,-0.91562160955661
14.2,23.7094614557748,27.1047172170374,0.867258771295403,2.28930720760057,2.26031564693868,-0.477390971532316
14.3,23.8575611625067,27.2792902727294,0.818907356595755,2.26031564693868,2.21998505368198,-0.294814101028256
14.4,24.0119451698454,27.4443837205582,0.788890356058426,2.21998505368198,2.17123168922023,-0.000773144112408069
14.5,24.1683726696224,27.6019076035069,0.78881130561059,2.17123168922023,2.11716849810585,0.846770254111391
14.6,24.3213770242499,27.7559599905308,0.875650610600277,2.11716849810585,2.06525907710813,0.826008409679871
14.7,24.4569811056299,27.9185501427751,0.960327589073771,2.06525907710813,2.01763413780753,0.598000722718711
14.8,24.5753724120669,28.0877732177853,1.02153920309087,2.01763413780753,1.9738647164553,0.317133019210877
14.9,24.6807037617702,28.2598597713278,1.05395573095378,1.9738647164553,1.93166967770233,0.177489600848099
15,24.7782394978592,28.4314645479928,1.07209239607287,1.93166967770233,1.88991759857094,0.1057571371048
15.1,24.8706288880869,28.6011043959381,1.08290174856,1.88991759857094,1.84820290365166,-0.00175528153626021
15.2,24.9592220193072,28.7680449314424,1.08272225866421,1.84820290365166,1.80537854185583,-0.0190997237693755
15.3,25.0458890039738,28.9312851639204,1.08076698091436,1.80537854185583,1.7616620036535,0.0189798134734381
15.4,25.1308594665486,29.0905771514268,1.08271206163372,1.7616620036535,1.71816140472197,0.0313707426087076
15.5,25.2134699125936,29.2461729237197,1.08592856068487,1.71816140472197,1.67555765576584,0.0111213808722706
15.6,25.2935519331286,29.398184949934,1.08706897667212,1.67555765576584,1.63393819969784,-0.0394731136067735
15.7,25.3714791205746,29.5465166324389,1.08302111992252,1.63393819969784,1.59276361839496,-0.0500996898386087
15.8,25.4480555487858,29.6908550924789,1.07788163807632,1.59276361839496,1.55218116835071,-0.150229292583397
15.9,25.5234244241571,29.8311707796493,1.06246592781498,1.55218116835071,1.51055520647786,-0.153163553570068
16,25.5989720978232,29.9667628620047,1.04672750378985,1.51055520647786,1.4681094511303,-0.162661919750258
16.1,25.6745613404244,30.0975452641892,1.02999102616652,1.4681094511303,1.42491237399458,-0.1420401491813
16.2,25.7501435110679,30.2234054607797,1.01535640797814,1.42491237399458,1.38156545597033,-0.146430707801325
16.3,25.8252815823352,30.344475783245,1.00025390765308,1.38156545597033,1.33816506507979,-0.171639795948565
16.4,25.8998983621219,30.4607494572455,0.982533252769731,1.33816506507979,1.29440607760528,-0.134083710980321
16.5,25.9741554033422,30.5720721828823,0.968671595216171,1.29440607760528,1.25110058796828,-0.0928415539850865
16.6,26.0474698923228,30.6787485937843,0.959066078850155,1.25110058796828,1.20908740513978,-0.102578196883847
16.7,26.1193186969388,30.7811706426185,0.94845182202401,1.20908740513978,1.16826426789045,-0.0854906875945523
16.8,26.1898014441414,30.8794106847574,0.939604019650155,1.16826426789045,1.12900780432689,-0.0580576013059674
16.9,26.2587416246863,30.9737275204906,0.933596388806041,1.12900780432689,1.09190021085275,-0.0482048722938144
17,26.3259116262261,31.0644731931999,0.928612080122394,1.09190021085275,1.05721620886239,-0.0657472649897416
17.1,26.3913105515435,31.1519114072251,0.92182165713195,1.05721620886239,1.02467404432456,-0.044777952079489
17.2,26.455205510526,31.2361402344723,0.917201653629343,1.02467404432456,0.994817649606372,-0.0737690473159297
17.3,26.5175102164219,31.3174894360317,0.909603353771164,0.994817649606372,0.967080048357415,-0.0340021759569718
17.4,26.5785978750952,31.3960064374868,0.906105611797842,0.967080048357415,0.942563086998096,-0.0755025856452488
17.5,26.6382488928881,31.4721260425539,0.898358963835056,0.942563086998096,0.920343382871099,-0.0459639453233855
17.6,26.6969606384503,31.5458632967933,0.893651599279506,0.920343382871099,0.901450418002397,-0.0767350665934499
17.7,26.7546266197358,31.6175916316849,0.885817268143474,0.901450418002397,0.885179687167039,-0.0687694800730123
17.8,26.811657492876,31.6874028633746,0.878813913066944,0.885179687167039,0.872070339271365,-0.0449002865508819
17.9,26.8681376981152,31.75556016087,0.874256388310853,0.872070339271365,0.863516844033732,-0.0374309114988249
18,26.924086891204,31.8224537671346,0.870476220278746,0.863516844033732,0.860740426609826,-0.0298259906965103
18.1,26.9797373123354,31.8884813676301,0.867484000492129,0.860740426609826,0.865653130558905,-0.0405430417604135
18.2,27.035405489017,31.9541303959926,0.863452705065705,0.865653130558905,0.879982405755333,-0.0511250175397352
18.3,27.0916570991121,32.0199278867212,0.858423453208657,0.879982405755333,0.906592519365764,-0.0275260050961248
18.4,27.1491755150349,32.0865261012177,0.855751646452269,0.906592519365764,0.955963468835468,-0.0105753398288543
18.5,27.2086163581759,32.1549796338394,0.854748729051014,0.955963468835468,1.05365903330718,-0.0564620004942255
18.6,27.2713665737184,32.227098091857,0.849626046271896,1.05365903330718,1.25155504188781,-0.0206383833149887
18.7,27.3409358911345,32.3062314202274,0.84788854226409,1.25155504188781,1.55154886189297,-0.0591778231753356
18.8,27.423734764018,32.4000836811376,0.843114970204447,1.45155504188781,1.75154885893875,-0.0822427564539239
18.9,27.5202835033688,32.508474000475,0.83629929462793,1.65155504188781,1.95154885960405,-0.0879529624704158
19,27.6309730268273,32.6310471213474,0.828856019103358,1.85155504188781,2.15154886412169,-0.0133710137566736
19.1,27.7560862111097,32.7675361386715,0.827705351863159,2.05155504188781,2.2999999999966,-0.125971875780355
19.2,27.894887711465,32.918608718573,0.816468906780827,2.25155504188781,2.29999999999944,-0.162520668594036
19.3,28.049073906417,33.0826868047171,0.800559157616306,2.29999999999944,2.3,-0.243899854671904
19.4,28.2092241680431,33.2477682806648,0.776169172149122,2.3,2.3,-0.0920930578230241
19.5,28.3733527332453,33.4088949826253,0.766959866366819,2.3,2.3,-0.00420862357968842
19.6,28.5389581826106,33.5685033631713,0.766539004008851,2.3,2.3,-0.0214146170223054
19.7,28.7046307904668,33.7280420324842,0.76439754230662,2.3,2.3,-0.0303346625250145
19.8,28.8706446641368,33.8872255547127,0.761364076054119,2.3,2.3,-0.0413478453102099
19.9,29.0371406510865,34.045904747834,0.757229291523098,2.3,2.3,0.0435231395400775
20,29.2042913171973,34.2038941614627,0.761581605477105,2.3,2.3,0.135520412290717
20.1,29.3707527828148,34.3626095686054,0.775133646706177,2.3,2.3,0.130401045167266
20.2,29.535048110788,34.523566224902,0.788173751222904,2.3,2.3,0.0962799785296996
